Data from baseline_80C_MAYP1115451__0__15-41-20-517.txt Node

Date: Tue Jun 11 15:41:20 MDT 2024
User: Modes Lab
Spectrometer: MAYP111545
Trigger mode: 0
Integration Time (sec): 2.500000E-2
Scans to average: 5
Electric dark correction enabled: true
Nonlinearity correction enabled: false
Boxcar width: 5
XAxis mode: Wavelengths
Number of Pixels in Spectrum: 2068
>>>>>Begin Spectral Data<<<<<
165.214	186.53
165.449	212.66
165.683	257.55
165.918	296.2
166.152	326.26
166.387	350.44
166.621	313.42
166.856	382.91
167.09	433.84
167.325	489.47
167.559	532.27
167.794	571.36
168.028	592.16
168.263	594.8
168.497	594.82
168.732	596.18
168.966	596.4
169.2	598.07
169.435	600.93
169.669	601.6
169.903	603.53
170.138	608.04
170.372	608.89
170.606	611.49
170.841	613.35
171.075	615.51
171.309	618.16
171.544	621.93
171.778	624.47
172.012	627.35
172.246	630.71
172.48	633.56
172.715	636.62
172.949	640.38
173.183	642.2
173.417	645.8
173.651	649.85
173.885	652.27
174.119	654.64
174.354	657.71
174.588	658.38
174.822	658.22
175.056	658.36
175.29	658.18
175.524	657.93
175.758	658.27
175.992	658.58
176.226	657.49
176.46	656.69
176.694	657.53
176.928	657.95
177.162	659.82
177.396	662.45
177.63	664.62
177.864	665.64
178.097	666.98
178.331	668.78
178.565	669.75
178.799	670.65
179.033	672.91
179.267	672.15
179.5	671.82
179.734	672.69
179.968	674.53
180.202	676.09
180.436	677.56
180.669	679.4
180.903	681.07
181.137	683.09
181.371	684.45
181.604	683.8
181.838	687.02
182.072	688.29
182.305	690.62
182.539	690.84
182.772	692.02
183.006	693.33
183.24	694.09
183.473	701.56
183.707	703.33
183.94	706.45
184.174	710.8
184.408	713.56
184.641	717.55
184.875	720.31
185.108	725.38
185.342	728.38
185.575	732.73
185.808	739.24
186.042	741.36
186.275	747.42
186.509	751.95
186.742	757.35
186.976	763.98
187.209	769.25
187.442	774.91
187.676	781.38
187.909	790.69
188.142	799.15
188.376	808.33
188.609	815.11
188.842	822.53
189.076	832.87
189.309	842.36
189.542	852.95
189.775	865.93
190.009	879.13
190.242	891.18
190.475	902.25
190.708	915.93
190.941	927.13
191.174	942.11
191.408	956.51
191.641	970.93
191.874	986.16
192.107	1002.38
192.34	1016.69
192.573	1030.98
192.806	1045.4
193.039	1061.76
193.272	1078.67
193.505	1095.4
193.738	1109.8
193.971	1127.91
194.204	1146.04
194.437	1163.95
194.67	1181.24
194.903	1198.11
195.136	1216.96
195.369	1233.91
195.602	1252
195.835	1267.25
196.068	1283.58
196.301	1302.31
196.533	1319.25
196.766	1337.91
196.999	1357.71
197.232	1374.35
197.465	1392.53
197.698	1410.58
197.93	1430.87
198.163	1450.25
198.396	1473.05
198.629	1496.58
198.861	1516.18
199.094	1537.36
199.327	1557.45
199.559	1578.69
199.792	1602.15
200.025	1626.85
200.257	1651.56
200.49	1676.62
200.723	1700.89
200.955	1725.09
201.188	1747.87
201.42	1775.31
201.653	1804.36
201.886	1831.02
202.118	1857.69
202.351	1885.36
202.583	1912.87
202.816	1941.15
203.048	1969.87
203.281	1999.65
203.513	2027.42
203.745	2062.2
203.978	2092.51
204.21	2122.67
204.443	2155.42
204.675	2189.11
204.907	2220.85
205.14	2258.16
205.372	2292.16
205.605	2327.69
205.837	2363.31
206.069	2400.02
206.302	2432.87
206.534	2470.89
206.766	2507.69
206.998	2547.13
207.231	2587.22
207.463	2630.09
207.695	2668.35
207.927	2709.64
208.159	2750.84
208.392	2793.76
208.624	2839.44
208.856	2881.67
209.088	2926.85
209.32	2972.49
209.552	3018.44
209.784	3062.53
210.017	3105.25
210.249	3155.55
210.481	3202.87
210.713	3250
210.945	3298.75
211.177	3344.4
211.409	3398.84
211.641	3450.82
211.873	3503.82
212.105	3556.4
212.337	3610.53
212.569	3662.76
212.801	3718.91
213.033	3777.4
213.264	3837.98
213.496	3898.44
213.728	3962.89
213.96	4023.62
214.192	4083.22
214.424	4144.27
214.656	4204.24
214.887	4269.67
215.119	4340.18
215.351	4401.16
215.583	4464.13
215.815	4530.36
216.046	4596.71
216.278	4663.51
216.51	4731.02
216.741	4802.95
216.973	4871.84
217.205	4946.53
217.436	5014.42
217.668	5083.09
217.9	5157.64
218.131	5232.47
218.363	5305.27
218.595	5377.8
218.826	5452.89
219.058	5527.87
219.289	5598.65
219.521	5670.98
219.752	5745.22
219.984	5822.91
220.215	5902.44
220.447	5982.13
220.678	6060.91
220.91	6141.76
221.141	6222.29
221.373	6302.25
221.604	6381.33
221.836	6464.93
222.067	6553.15
222.298	6633.45
222.53	6717.56
222.761	6802.2
222.993	6884.49
223.224	6972.76
223.455	7064.13
223.686	7151.05
223.918	7240.05
224.149	7333.69
224.38	7423.05
224.612	7510.82
224.843	7602.55
225.074	7692.78
225.305	7785.13
225.536	7875.71
225.768	7964.62
225.999	8049.07
226.23	8138.71
226.461	8229.84
226.692	8317.62
226.923	8407.47
227.155	8504.31
227.386	8595.78
227.617	8686.16
227.848	8776.27
228.079	8875.11
228.31	8969.09
228.541	9064.56
228.772	9162.09
229.003	9256
229.234	9352
229.465	9446.93
229.696	9534.71
229.927	9629.38
230.158	9723.29
230.389	9815.69
230.62	9904.36
230.85	10000.4
231.081	10093.96
231.312	10183.07
231.543	10276.87
231.774	10368.11
232.005	10464.04
232.236	10558.36
232.466	10653.71
232.697	10744
232.928	10835.51
233.159	10922.76
233.389	11008.2
233.62	11091.87
233.851	11176.4
234.082	11252.56
234.312	11331
234.543	11400.8
234.774	11475.11
235.004	11538.45
235.235	11608.38
235.466	11674.49
235.696	11735.82
235.927	11792.84
236.157	11854.18
236.388	11914.36
236.618	11973.27
236.849	12028.56
237.08	12086.85
237.31	12139.24
237.541	12194.04
237.771	12245.6
238.002	12299.71
238.232	12354.51
238.463	12410.36
238.693	12461.44
238.923	12511.91
239.154	12554.76
239.384	12600.71
239.615	12644.11
239.845	12688.44
240.075	12732.27
240.306	12772.73
240.536	12812.96
240.766	12846.71
240.997	12881.82
241.227	12916.82
241.457	12953.18
241.687	12993.67
241.918	13026.91
242.148	13057.62
242.378	13092.91
242.608	13133.45
242.839	13171.18
243.069	13201.49
243.299	13240.96
243.529	13272.55
243.759	13303.76
243.989	13328.16
244.22	13359.65
244.45	13397.58
244.68	13427.02
244.91	13454.31
245.14	13476.42
245.37	13503.42
245.6	13527.22
245.83	13552.64
246.06	13577.02
246.29	13604.42
246.52	13633.2
246.75	13656.13
246.98	13682.33
247.21	13712.47
247.44	13740.22
247.67	13766.27
247.9	13789.76
248.13	13818.84
248.359	13842.69
248.589	13874
248.819	13898.09
249.049	13920.51
249.279	13945
249.509	13962.07
249.738	13983.05
249.968	13999.22
250.198	14018.73
250.428	14039.07
250.657	14055.25
250.887	14072.11
251.117	14091.44
251.347	14108.95
251.576	14123.4
251.806	14141.45
252.036	14152.87
252.265	14168.44
252.495	14184.27
252.725	14197.96
252.954	14213.15
253.184	14226.29
253.413	14231.76
253.643	14240.13
253.873	14244.25
254.102	14252.82
254.332	14266.15
254.561	14275.27
254.791	14280.95
255.02	14282.33
255.25	14287.58
255.479	14285.36
255.708	14291.47
255.938	14301.84
256.167	14298.95
256.397	14299.84
256.626	14302.78
256.856	14292.73
257.085	14291.62
257.314	14293.8
257.544	14294.71
257.773	14292.33
258.002	14291.8
258.232	14290.64
258.461	14289.45
258.69	14291.95
258.919	14295.87
259.149	14289.76
259.378	14291.75
259.607	14289.13
259.836	14282.53
260.065	14289.95
260.295	14291.15
260.524	14292.98
260.753	14283.07
260.982	14281.35
261.211	14276.67
261.44	14268.4
261.669	14269.53
261.899	14260.65
262.128	14258.85
262.357	14257.64
262.586	14247.11
262.815	14240.62
263.044	14235.15
263.273	14238.67
263.502	14231.82
263.731	14222.6
263.96	14215.76
264.189	14209.29
264.418	14205.25
264.646	14191
264.875	14182.65
265.104	14171.82
265.333	14163.95
265.562	14151.85
265.791	14131.53
266.02	14118.98
266.249	14110.69
266.477	14106.95
266.706	14099.71
266.935	14092.15
267.164	14096.25
267.393	14091.8
267.621	14096.35
267.85	14098.49
268.079	14101.18
268.307	14109.95
268.536	14113.07
268.765	14121.93
268.993	14122.98
269.222	14131.62
269.451	14137.6
269.679	14140.36
269.908	14149.82
270.137	14149.98
270.365	14152.4
270.594	14163.36
270.822	14170.07
271.051	14182.4
271.279	14185.73
271.508	14198.65
271.736	14207.2
271.965	14219.36
272.193	14239.6
272.422	14250.11
272.65	14268.73
272.879	14285.47
273.107	14300.24
273.336	14324.6
273.564	14338.87
273.792	14352.56
274.021	14367.31
274.249	14382.13
274.477	14398.18
274.706	14403.38
274.934	14426.64
275.162	14444.45
275.391	14462.4
275.619	14480.04
275.847	14496.09
276.075	14518.78
276.304	14545.36
276.532	14571.67
276.76	14595.75
276.988	14619.95
277.216	14649.98
277.445	14673.47
277.673	14693.67
277.901	14721.13
278.129	14744.55
278.357	14767.49
278.585	14791.62
278.813	14819.45
279.041	14841.71
279.269	14867.82
279.497	14897.98
279.725	14922.65
279.954	14943.91
280.182	14975.96
280.41	14999.85
280.637	15032.31
280.865	15063.15
281.093	15090.05
281.321	15115.78
281.549	15140.62
281.777	15167.45
282.005	15197.8
282.233	15225.47
282.461	15258.11
282.689	15284.04
282.916	15313.82
283.144	15341.47
283.372	15367.89
283.6	15398.15
283.828	15425.51
284.055	15456.76
284.283	15489.87
284.511	15511.65
284.739	15535.69
284.966	15558.71
285.194	15584.96
285.422	15608.85
285.649	15631.31
285.877	15653.24
286.105	15679.82
286.332	15705.62
286.56	15735.67
286.788	15754.38
287.015	15779.56
287.243	15813.38
287.47	15833.67
287.698	15859.76
287.925	15888.51
288.153	15915.75
288.381	15942.38
288.608	15967.8
288.836	15997.69
289.063	16020.8
289.29	16052.09
289.518	16080.05
289.745	16106.15
289.973	16140.35
290.2	16163.44
290.428	16187.47
290.655	16215.95
290.882	16241.31
291.11	16264.96
291.337	16289.91
291.564	16314.05
291.792	16335.35
292.019	16365.36
292.246	16384.04
292.473	16402.87
292.701	16431.35
292.928	16455.98
293.155	16476.62
293.382	16504.85
293.61	16531.76
293.837	16547
294.064	16572.33
294.291	16594.47
294.518	16619.09
294.745	16644.38
294.972	16667.51
295.2	16685.93
295.427	16708.45
295.654	16729.87
295.881	16745.22
296.108	16762.07
296.335	16783.93
296.562	16797.16
296.789	16813.55
297.016	16823.76
297.243	16834.11
297.47	16851.67
297.697	16869.84
297.924	16881.78
298.151	16890
298.378	16899.18
298.604	16903.85
298.831	16911.36
299.058	16912.89
299.285	16925.22
299.512	16927.16
299.739	16942.47
299.966	16947.95
300.192	16946.44
300.419	16946.69
300.646	16948.49
300.873	16949.04
301.099	16954.18
301.326	16956.53
301.553	16961.2
301.78	16962.56
302.006	16958.27
302.233	16952.85
302.46	16951.58
302.686	16952.45
302.913	16953.02
303.14	16953.84
303.366	16955.67
303.593	16949.73
303.819	16946.13
304.046	16942.53
304.272	16930.05
304.499	16936.47
304.725	16928.93
304.952	16923.91
305.179	16917.38
305.405	16902.67
305.631	16898.44
305.858	16891.8
306.084	16881.96
306.311	16877.51
306.537	16876
306.764	16876.05
306.99	16861.11
307.216	16857.07
307.443	16849.33
307.669	16845.11
307.895	16847.38
308.122	16836.73
308.348	16823.91
308.574	16817.98
308.801	16804.53
309.027	16791.18
309.253	16773.04
309.479	16763.16
309.706	16750.13
309.932	16737.35
310.158	16727.45
310.384	16706.95
310.61	16693.58
310.837	16684.69
311.063	16670.84
311.289	16651.04
311.515	16634.67
311.741	16624.02
311.967	16611.62
312.193	16601.15
312.419	16577.85
312.645	16557.82
312.871	16548.18
313.097	16527.2
313.323	16512.27
313.549	16500.09
313.775	16488.85
314.001	16468.33
314.227	16444.27
314.453	16428.49
314.679	16405.07
314.905	16388.47
315.131	16368.62
315.357	16345
315.583	16331.16
315.809	16306.22
316.034	16284.44
316.26	16266.09
316.486	16254.64
316.712	16240.95
316.938	16208.07
317.163	16186.51
317.389	16164.15
317.615	16142.96
317.841	16123.89
318.066	16101.82
318.292	16091.58
318.518	16072.84
318.743	16055.05
318.969	16034.96
319.195	16017.76
319.42	16010.27
319.646	15991.95
319.872	15980.56
320.097	15959.49
320.323	15935.2
320.548	15921.27
320.774	15900.04
320.999	15885.35
321.225	15867.24
321.45	15844
321.676	15831.58
321.901	15812.93
322.127	15794.55
322.352	15778.4
322.578	15764.47
322.803	15760.49
323.029	15745.31
323.254	15727.95
323.479	15707.31
323.705	15693.2
323.93	15688.45
324.155	15668.45
324.381	15656.58
324.606	15648.24
324.831	15634.38
325.057	15620.51
325.282	15603.62
325.507	15581.93
325.732	15568.71
325.958	15556.22
326.183	15542.58
326.408	15524.42
326.633	15506.13
326.858	15483.93
327.084	15471.98
327.309	15461.29
327.534	15450.13
327.759	15436.95
327.984	15431.76
328.209	15417.38
328.434	15406.78
328.659	15398.82
328.884	15386.15
329.109	15380.8
329.334	15376.05
329.559	15362.31
329.784	15345.25
330.009	15334.29
330.234	15321.16
330.459	15303.4
330.684	15292.93
330.909	15275.22
331.134	15255.15
331.359	15246.24
331.584	15231.85
331.809	15220.11
332.034	15200.56
332.259	15188.4
332.483	15168.16
332.708	15152.53
332.933	15145.16
333.158	15127.98
333.383	15121.64
333.607	15113.09
333.832	15100.25
334.057	15091.62
334.282	15082.67
334.506	15078.87
334.731	15072.84
334.956	15064.13
335.18	15063.51
335.405	15048.91
335.63	15041.07
335.854	15029.85
336.079	15016.62
336.303	15002.64
336.528	14990.2
336.753	14968.4
336.977	14956.62
337.202	14937.31
337.426	14928.35
337.651	14905
337.875	14893.25
338.1	14877.22
338.324	14866.18
338.549	14857.45
338.773	14844.93
338.997	14832.4
339.222	14829.93
339.446	14818.8
339.671	14816.49
339.895	14808.96
340.119	14810
340.344	14800.93
340.568	14801.71
340.792	14791.96
341.017	14773.24
341.241	14763.87
341.465	14754.75
341.689	14743.09
341.914	14730.8
342.138	14717.07
342.362	14704.67
342.586	14691.56
342.811	14681.42
343.035	14664.75
343.259	14652.69
343.483	14642.95
343.707	14628.35
343.931	14610.16
344.155	14594.13
344.38	14577.65
344.604	14560.91
344.828	14547.31
345.052	14539.31
345.276	14527.04
345.5	14513.67
345.724	14497.18
345.948	14497.11
346.172	14489.49
346.396	14486.55
346.62	14482.13
346.844	14474.13
347.068	14464.95
347.292	14452.44
347.515	14432.73
347.739	14420.69
347.963	14405.62
348.187	14394.11
348.411	14371.2
348.635	14354.11
348.859	14334.53
349.082	14312.2
349.306	14296.69
349.53	14286.56
349.754	14276.36
349.977	14260.51
350.201	14241.02
350.425	14233.64
350.649	14211.87
350.872	14196.25
351.096	14184.13
351.32	14169.05
351.543	14154.18
351.767	14141.64
351.99	14116.02
352.214	14098.45
352.438	14077.4
352.661	14061.18
352.885	14038.91
353.108	14027.36
353.332	14012.84
353.555	14002.82
353.779	13989.6
354.002	13978.13
354.226	13964.45
354.449	13954.36
354.673	13939.16
354.896	13931.09
355.12	13919.45
355.343	13903.49
355.566	13888.04
355.79	13874.87
356.013	13857.78
356.237	13840.4
356.46	13826.33
356.683	13806.85
356.907	13795.2
357.13	13777.73
357.353	13760.93
357.576	13746.75
357.8	13734
358.023	13722.31
358.246	13709.31
358.469	13689.31
358.693	13676.51
358.916	13658.07
359.139	13642.2
359.362	13625.67
359.585	13611.51
359.808	13600.16
360.031	13591.16
360.255	13578.29
360.478	13569.58
360.701	13555.71
360.924	13548.55
361.147	13539.36
361.37	13538.13
361.593	13535.51
361.816	13531.44
362.039	13524.51
362.262	13513.6
362.485	13500.73
362.708	13491.11
362.931	13475.24
363.154	13463.11
363.377	13456.82
363.599	13445.98
363.822	13433.35
364.045	13425.95
364.268	13415.07
364.491	13411.07
364.714	13409.13
364.936	13407.58
365.159	13417.35
365.382	13437.33
365.605	13456.29
365.828	13474.69
366.05	13494.85
366.273	13506.24
366.496	13520.11
366.718	13535.24
366.941	13543.93
367.164	13552.49
367.386	13558.09
367.609	13555.27
367.832	13546.73
368.054	13537.91
368.277	13523.07
368.5	13507.04
368.722	13489.73
368.945	13466.47
369.167	13446.2
369.39	13428.16
369.612	13410.15
369.835	13398.65
370.057	13381.93
370.28	13366.62
370.502	13354.76
370.725	13349.31
370.947	13340.58
371.169	13344.42
371.392	13348.96
371.614	13347.27
371.837	13351.02
372.059	13353.64
372.281	13350.31
372.504	13360.2
372.726	13368.89
372.948	13373.13
373.171	13377.89
373.393	13390.38
373.615	13406.89
373.837	13426.16
374.06	13459.82
374.282	13488.93
374.504	13522.55
374.726	13550.36
374.948	13580.27
375.17	13598.93
375.393	13621.13
375.615	13642.69
375.837	13665.58
376.059	13689.58
376.281	13719.05
376.503	13742.69
376.725	13771.8
376.947	13803.22
377.169	13848.22
377.391	13887.93
377.613	13951.02
377.835	14015
378.057	14083.8
378.279	14151.53
378.501	14207.35
378.723	14244.45
378.945	14268.89
379.167	14289.58
379.389	14309.42
379.611	14327.62
379.833	14342.02
380.054	14345.35
380.276	14340.95
380.498	14321.15
380.72	14311.2
380.942	14309.47
381.163	14333.67
381.385	14375.22
381.607	14420.36
381.829	14455.44
382.05	14487.18
382.272	14510.85
382.494	14530.38
382.716	14561.29
382.937	14593.89
383.159	14626.29
383.381	14656.25
383.602	14670.75
383.824	14677.98
384.045	14687.47
384.267	14694.49
384.488	14704.45
384.71	14724.91
384.932	14752.22
385.153	14779.29
385.375	14814.11
385.596	14845.07
385.818	14885.2
386.039	14936.64
386.261	15000.09
386.482	15069.11
386.703	15143.25
386.925	15216.96
387.146	15303.09
387.368	15387.67
387.589	15462.44
387.81	15530.96
388.032	15573.45
388.253	15601.64
388.474	15605.64
388.696	15597.22
388.917	15580.6
389.138	15575.6
389.359	15566.05
389.581	15548.64
389.802	15537.45
390.023	15540.67
390.244	15544.78
390.465	15577.8
390.687	15623.78
390.908	15702.93
391.129	15804.11
391.35	15919.31
391.571	16041.53
391.792	16186.35
392.013	16324.38
392.234	16438.64
392.455	16522.93
392.677	16599.02
392.898	16652.67
393.119	16707.29
393.34	16752.22
393.561	16774.58
393.782	16785
394.003	16775.62
394.223	16739.67
394.444	16700.64
394.665	16675.4
394.886	16671.44
395.107	16680.67
395.328	16714.93
395.549	16750.13
395.77	16788.33
395.99	16830.2
396.211	16885
396.432	16956
396.653	17048.71
396.874	17166.71
397.094	17295.11
397.315	17441.85
397.536	17591.45
397.757	17716.91
397.977	17819.22
398.198	17888.6
398.419	17946.02
398.639	17986.16
398.86	18001.2
399.081	17992.58
399.301	17956.18
399.522	17913.65
399.742	17850.29
399.963	17796.51
400.184	17757
400.404	17720.42
400.625	17698.75
400.845	17682.05
401.066	17666.67
401.286	17662.42
401.507	17682.49
401.727	17704.64
401.948	17724.95
402.168	17749.91
402.388	17765.29
402.609	17787.6
402.829	17819.89
403.05	17867.85
403.27	17931.55
403.49	17992.07
403.711	18076.49
403.931	18152.42
404.151	18246.44
404.372	18344.45
404.592	18443.42
404.812	18524.11
405.032	18578.98
405.253	18618.13
405.473	18630.44
405.693	18626.91
405.913	18617.75
406.133	18580.07
406.353	18542.44
406.574	18477.82
406.794	18417.89
407.014	18369.91
407.234	18343.42
407.454	18352.78
407.674	18376.2
407.894	18417.78
408.114	18467.91
408.334	18516.25
408.554	18574.56
408.774	18642.04
408.994	18725.8
409.214	18786.75
409.434	18824.02
409.654	18840.31
409.874	18843.78
410.094	18852.24
410.314	18869.95
410.534	18883.98
410.754	18911.85
410.974	18944.47
411.193	18983.13
411.413	19030.62
411.633	19105.22
411.853	19194.04
412.073	19287.67
412.292	19377.76
412.512	19461.47
412.732	19536.8
412.952	19604.31
413.171	19649.96
413.391	19688.58
413.611	19697.47
413.831	19708.42
414.05	19707.36
414.27	19697.67
414.489	19700.16
414.709	19696.05
414.929	19697.36
415.148	19701.27
415.368	19711.31
415.587	19735.64
415.807	19766.11
416.026	19797.47
416.246	19812.6
416.465	19832.85
416.685	19856.45
416.904	19878.85
417.124	19899.27
417.343	19928.29
417.563	19953.51
417.782	19992.35
418.002	20037.35
418.221	20081.27
418.44	20139.82
418.66	20203.05
418.879	20262.76
419.098	20338.36
419.318	20425.96
419.537	20538.71
419.756	20654.47
419.976	20790.82
420.195	20935.75
420.414	21109.78
420.633	21291.07
420.853	21470.58
421.072	21633.8
421.291	21779.51
421.51	21899.24
421.729	22000.25
421.948	22088.93
422.168	22175.16
422.387	22243.4
422.606	22274.04
422.825	22263.85
423.044	22219.47
423.263	22158.98
423.482	22111.29
423.701	22084.29
423.92	22070.53
424.139	22060.82
424.358	22042.16
424.577	21996.53
424.796	21931.76
425.015	21870.24
425.234	21815.91
425.453	21789.82
425.672	21790.24
425.891	21810.07
426.11	21848.02
426.328	21925.29
426.547	22014.13
426.766	22088.27
426.985	22155.31
427.204	22207.24
427.422	22275.15
427.641	22354.22
427.86	22431.58
428.079	22520.33
428.297	22616.33
428.516	22728.76
428.735	22835.2
428.954	22949.27
429.172	23080.98
429.391	23222.02
429.61	23383.38
429.828	23533.42
430.047	23652.93
430.265	23741.42
430.484	23767.09
430.703	23741.93
430.921	23663.84
431.14	23536.64
431.358	23393.75
431.577	23260.18
431.795	23143.36
432.014	23053.02
432.232	23016.73
432.451	23056.05
432.669	23189.85
432.887	23369.22
433.106	23544.78
433.324	23673.2
433.543	23769.53
433.761	23844.6
433.979	23927.18
434.198	24013.85
434.416	24085.44
434.634	24108.29
434.853	24078.18
435.071	23994.15
435.289	23909.45
435.507	23875.36
435.726	23896.42
435.944	23955.58
436.162	24010.84
436.38	24040.93
436.598	24069.05
436.817	24107.15
437.035	24156.58
437.253	24222.56
437.471	24281.58
437.689	24334.29
437.907	24371.16
438.125	24402
438.343	24440.51
438.561	24491.78
438.78	24545.73
438.998	24597.13
439.216	24630.85
439.434	24666.55
439.652	24719.38
439.869	24816.67
440.087	24954.6
440.305	25133.09
440.523	25342.27
440.741	25540.71
440.959	25728.24
441.177	25889.09
441.395	26025.22
441.613	26159.09
441.831	26289.95
442.048	26392.82
442.266	26467.53
442.484	26511.11
442.702	26516.96
442.919	26512.49
443.137	26508.62
443.355	26515.89
443.573	26558.91
443.79	26618.22
444.008	26687
444.226	26748.75
444.443	26791.07
444.661	26808.55
444.879	26826.18
445.096	26842.69
445.314	26859.13
445.532	26882.75
445.749	26915.73
445.967	26942.04
446.184	26952.78
446.402	26967.33
446.619	26980.95
446.837	26996.76
447.054	27014.31
447.272	27022.07
447.489	27026.24
447.707	27029.13
447.924	27042.65
448.141	27063.42
448.359	27087.8
448.576	27134.4
448.794	27168.91
449.011	27211.2
449.228	27258.15
449.446	27298.24
449.663	27339.42
449.88	27366.85
450.098	27382.47
450.315	27380.42
450.532	27370.84
450.749	27374.62
450.967	27380.31
451.184	27396.71
451.401	27397.6
451.618	27405.82
451.835	27423.55
452.052	27431.18
452.27	27440
452.487	27457.51
452.704	27478.15
452.921	27502.35
453.138	27508.38
453.355	27515.89
453.572	27529.07
453.789	27565.27
454.006	27615.42
454.223	27682.4
454.44	27753.87
454.657	27834.05
454.874	27880.73
455.091	27933.38
455.308	27982.16
455.525	28030.24
455.742	28091.47
455.959	28155.38
456.176	28226.65
456.393	28290.07
456.609	28348.13
456.826	28416.33
457.043	28503.02
457.26	28622.02
457.477	28743.27
457.693	28860.2
457.91	28967.95
458.127	29068.75
458.344	29158.07
458.56	29223.65
458.777	29277.65
458.994	29293.87
459.21	29294.89
459.427	29271
459.644	29240.82
459.86	29202.49
460.077	29177.84
460.294	29160.13
460.51	29114.13
460.727	29057
460.943	28985.67
461.16	28917.69
461.376	28871.93
461.593	28838.44
461.809	28837.15
462.026	28854.51
462.242	28892.2
462.459	28936.42
462.675	29008.18
462.892	29101.36
463.108	29222.67
463.324	29367.69
463.541	29529.04
463.757	29703.22
463.974	29876.6
464.19	30018.35
464.406	30150.89
464.623	30274.07
464.839	30368.55
465.055	30432.15
465.271	30479.31
465.488	30469.82
465.704	30436.49
465.92	30379.13
466.136	30309.2
466.353	30237.2
466.569	30172.56
466.785	30116.25
467.001	30060.93
467.217	30021.98
467.433	29987.2
467.649	29950.73
467.865	29943.91
468.082	29947.16
468.298	29955.4
468.514	29958.67
468.73	29958.31
468.946	29958.84
469.162	29945.67
469.378	29932.67
469.594	29914.8
469.81	29911.6
470.026	29928.38
470.242	29962.4
470.457	30006.84
470.673	30058.71
470.889	30132.05
471.105	30213.69
471.321	30310.29
471.537	30419.64
471.753	30547.6
471.968	30687.47
472.184	30840.13
472.4	30997.87
472.616	31145.05
472.832	31290.55
473.047	31422.02
473.263	31527.47
473.479	31647.18
473.694	31762.65
473.91	31880.76
474.126	31991.47
474.341	32106.75
474.557	32198.27
474.773	32260
474.988	32328.62
475.204	32402.98
475.42	32501.02
475.635	32597.51
475.851	32674.04
476.066	32735.15
476.282	32787.49
476.497	32823.82
476.713	32865.56
476.928	32946.89
477.144	33057.44
477.359	33156.75
477.575	33254.62
477.79	33323.73
478.005	33402.35
478.221	33480.36
478.436	33570.22
478.651	33676.53
478.867	33791.36
479.082	33887.58
479.297	33959.29
479.513	34020.4
479.728	34077.67
479.943	34133.07
480.159	34201.11
480.374	34290.05
480.589	34397.82
480.804	34494.75
481.019	34559.91
481.235	34613.51
481.45	34658.11
481.665	34686.91
481.88	34713.87
482.095	34775.13
482.31	34829.44
482.525	34895.65
482.741	34951.35
482.956	35008.65
483.171	35077.22
483.386	35190.31
483.601	35309.75
483.816	35435.98
484.031	35632.36
484.246	36121.69
484.461	36997.27
484.676	38211.76
484.891	39661.13
485.105	41039
485.32	42083.2
485.535	42794.11
485.75	43131.95
485.965	43240.24
486.18	43284.07
486.395	43249.58
486.609	42905.93
486.824	42135.27
487.039	41015.22
487.254	39627.47
487.469	38295.51
487.683	37283.47
487.898	36588.24
488.113	36241.47
488.327	36118.75
488.542	36072.35
488.757	36038.22
488.972	36033.25
489.186	36022.58
489.401	36031.84
489.615	36063.18
489.83	36092.44
490.045	36119.07
490.259	36141.15
490.474	36145.22
490.688	36153.62
490.903	36156.25
491.117	36148.65
491.332	36131.25
491.546	36142.33
491.761	36151.45
491.975	36161.38
492.19	36192.84
492.404	36217.67
492.618	36242.05
492.833	36264.98
493.047	36288.45
493.262	36304
493.476	36328.8
493.69	36344.15
493.905	36341.47
494.119	36338.84
494.333	36330.35
494.547	36312.35
494.762	36307.93
494.976	36343.87
495.19	36399
495.404	36458.96
495.619	36510.18
495.833	36551.69
496.047	36569.69
496.261	36585.93
496.475	36581.87
496.689	36572.27
496.903	36572.55
497.117	36564.58
497.332	36530.96
497.546	36495.07
497.76	36451.8
497.974	36422.18
498.188	36395.35
498.402	36394.96
498.616	36401.6
498.83	36416.8
499.044	36433.89
499.258	36433.04
499.472	36415.04
499.685	36403.04
499.899	36394.71
500.113	36393.22
500.327	36388.85
500.541	36391.36
500.755	36397.42
500.969	36407.16
501.183	36424.91
501.396	36455.53
501.61	36478.35
501.824	36527.87
502.038	36562.78
502.251	36582.22
502.465	36589.27
502.679	36589.27
502.892	36583.58
503.106	36566.11
503.32	36554.4
503.533	36534.31
503.747	36516.05
503.961	36515.96
504.174	36504.82
504.388	36498.71
504.602	36499.25
504.815	36517.42
505.029	36536.33
505.242	36572.65
505.456	36614.62
505.669	36655.47
505.883	36698.64
506.096	36731.91
506.31	36752.38
506.523	36786.76
506.736	36825.67
506.95	36884.65
507.163	36931.4
507.377	36993.47
507.59	37044.84
507.803	37107.05
508.017	37161.25
508.23	37231.69
508.443	37312.87
508.657	37410.44
508.87	37481.49
509.083	37566.85
509.296	37634.65
509.51	37709.13
509.723	37780.45
509.936	37866.76
510.149	37958.64
510.363	38063.15
510.576	38170.33
510.789	38271.89
511.002	38383.18
511.215	38498.35
511.428	38606.53
511.641	38726.49
511.854	38842
512.067	38957.18
512.28	39077.47
512.493	39190.62
512.707	39304.07
512.92	39413.22
513.132	39532.98
513.345	39639.16
513.558	39761.78
513.771	39880.78
513.984	39982.11
514.197	40086.67
514.41	40205.16
514.623	40316.33
514.836	40440.8
515.049	40563.67
515.262	40685.58
515.474	40803.73
515.687	40926.64
515.9	41042.22
516.113	41153.11
516.325	41265.02
516.538	41375.38
516.751	41471.47
516.964	41563.09
517.176	41642.64
517.389	41736.11
517.602	41828.6
517.814	41927.05
518.027	42022.45
518.24	42126.58
518.452	42234.25
518.665	42327.29
518.877	42422.6
519.09	42498.67
519.303	42574.02
519.515	42653.53
519.728	42707.05
519.94	42768.09
520.153	42824.75
520.365	42889.71
520.578	42942.67
520.79	42985.65
521.002	43038.31
521.215	43089.62
521.427	43157.53
521.64	43220.16
521.852	43279.78
522.064	43346.53
522.277	43420.18
522.489	43477.96
522.701	43541.44
522.914	43603.53
523.126	43668.47
523.338	43730.75
523.551	43798.05
523.763	43864.4
523.975	43918.85
524.187	43973.8
524.399	44039.04
524.612	44086.05
524.824	44151.04
525.036	44185
525.248	44237.16
525.46	44279.02
525.672	44334.87
525.884	44385.45
526.096	44426.71
526.308	44478.4
526.521	44529
526.733	44565.02
526.945	44594.16
527.157	44625.69
527.369	44678.98
527.581	44728.09
527.793	44782.24
528.004	44844.91
528.216	44890.62
528.428	44945.82
528.64	45004.75
528.852	45060.84
529.064	45119.49
529.276	45176.8
529.488	45223.87
529.699	45254.87
529.911	45267.31
530.123	45280.84
530.335	45290.02
530.547	45310.76
530.758	45328.49
530.97	45338.36
531.182	45347.58
531.393	45386.22
531.605	45426.82
531.817	45473.22
532.029	45542.93
532.24	45616.78
532.452	45711.82
532.663	45789.24
532.875	45855.29
533.087	45933.02
533.298	46012.51
533.51	46099.4
533.721	46152.15
533.933	46213.96
534.144	46259.64
534.356	46282.38
534.567	46316.45
534.779	46316.27
534.99	46312.76
535.202	46320.65
535.413	46303.67
535.624	46281.15
535.836	46257.2
536.047	46233.85
536.259	46213.07
536.47	46210.93
536.681	46219.29
536.893	46239.85
537.104	46271.78
537.315	46321.8
537.526	46366.98
537.738	46424.44
537.949	46483.24
538.16	46548.2
538.371	46611.76
538.582	46682.33
538.794	46725.58
539.005	46753.64
539.216	46752.02
539.427	46768.42
539.638	46773.96
539.849	46788.89
540.06	46810.65
540.272	46842.91
540.483	46855.75
540.694	46884.02
540.905	46896.09
541.116	46926.96
541.327	46963.45
541.538	47003.87
541.749	47038.25
541.96	47061.25
542.17	47084.55
542.381	47103.11
542.592	47116.95
542.803	47144.71
543.014	47172.67
543.225	47198.96
543.436	47222.51
543.647	47248.24
543.857	47272.96
544.068	47280.8
544.279	47289.05
544.49	47278.18
544.701	47266.16
544.911	47254.35
545.122	47234.69
545.333	47205.29
545.543	47185.16
545.754	47175.24
545.965	47167.6
546.175	47181.18
546.386	47211.76
546.597	47264.8
546.807	47345.98
547.018	47417.53
547.229	47495.84
547.439	47561.95
547.65	47608.07
547.86	47651.56
548.071	47658.42
548.281	47671.78
548.492	47655.4
548.702	47641.16
548.913	47615.65
549.123	47577.29
549.333	47542.29
549.544	47499.07
549.754	47455.22
549.965	47431.02
550.175	47402.53
550.385	47417.25
550.596	47441.22
550.806	47484.69
551.016	47525.58
551.227	47570.53
551.437	47595.64
551.647	47620.27
551.857	47642.89
552.068	47691.33
552.278	47735.75
552.488	47787.96
552.698	47815.93
552.908	47814.45
553.119	47805.89
553.329	47785.38
553.539	47756.89
553.749	47745.04
553.959	47762.44
554.169	47781.29
554.379	47791.85
554.589	47819.65
554.799	47846.45
555.009	47873
555.219	47888.25
555.429	47900.62
555.639	47911.98
555.849	47918.96
556.059	47921.93
556.269	47908.04
556.479	47904.29
556.689	47896.05
556.899	47875.69
557.109	47847.55
557.319	47814.76
557.528	47804.75
557.738	47784.67
557.948	47775.8
558.158	47770.78
558.368	47782.8
558.577	47792.87
558.787	47820.84
558.997	47844.75
559.207	47895.29
559.416	47960.33
559.626	48022.51
559.836	48090.33
560.045	48164.05
560.255	48230.25
560.465	48293.16
560.674	48335.95
560.884	48363.45
561.093	48364.87
561.303	48374.04
561.512	48346.95
561.722	48317.24
561.932	48311.84
562.141	48292.6
562.351	48294.22
562.56	48295.91
562.769	48317.25
562.979	48346.47
563.188	48388.64
563.398	48432.04
563.607	48467.64
563.817	48517.49
564.026	48544.07
564.235	48564.58
564.445	48596.31
564.654	48610.78
564.863	48632.55
565.073	48636.51
565.282	48647.38
565.491	48661.62
565.7	48705.95
565.91	48788.05
566.119	48873.87
566.328	48984.55
566.537	49089.2
566.746	49197.24
566.956	49301.33
567.165	49421.11
567.374	49568.82
567.583	49722.8
567.792	49902.71
568.001	50088.73
568.21	50290.95
568.419	50536.82
568.628	50793.82
568.837	51050.78
569.046	51289.58
569.255	51527.09
569.464	51746.45
569.673	51962.07
569.882	52203.2
570.091	52434.16
570.3	52653.73
570.509	52836.73
570.718	52951.64
570.927	53028.24
571.135	53040.33
571.344	53001.29
571.553	52964.38
571.762	52958.4
571.971	53009.64
572.18	53107.67
572.388	53227.65
572.597	53344.07
572.806	53463.13
573.014	53607.16
573.223	53749.95
573.432	53949.07
573.641	54209.75
573.849	54446.53
574.058	54613.55
574.266	54674.98
574.475	54617.02
574.684	54509.47
574.892	54407.25
575.101	54330.09
575.309	54316.69
575.518	54352.73
575.726	54395.84
575.935	54495.98
576.143	54687.04
576.352	55003.6
576.56	55409.82
576.769	55850.65
576.977	56214.44
577.186	56447.73
577.394	56526.35
577.602	56443.27
577.811	56281.44
578.019	56141.95
578.228	55976.71
578.436	55812
578.644	55596.05
578.852	55344.69
579.061	55091.75
579.269	54899.84
579.477	54773.2
579.685	54811.73
579.894	55100.27
580.102	55628.71
580.31	56296.75
580.518	56950.18
580.726	57524.42
580.935	57944.07
581.143	58181.73
581.351	58269.65
581.559	58238.24
581.767	58122.85
581.975	57868.53
582.183	57375.85
582.391	56671.02
582.599	55844.38
582.807	55059.96
583.015	54359.85
583.223	53827.62
583.431	53493.96
583.639	53366.76
583.847	53405.2
584.055	53594.89
584.263	53861.87
584.471	54148.44
584.678	54380.87
584.886	54503.89
585.094	54483.91
585.302	54348.11
585.51	54189.56
585.718	54036.02
585.925	53895.07
586.133	53801.53
586.341	53689.47
586.549	53554.51
586.756	53447.49
586.964	53371.4
587.172	53331.04
587.379	53326.02
587.587	53333.89
587.795	53246.71
588.002	53053.87
588.21	52787.67
588.417	52429.25
588.625	52078.07
588.833	51755.67
589.04	51444.27
589.248	51158.02
589.455	50889.95
589.663	50657.38
589.87	50445.36
590.078	50301.35
590.285	50203.09
590.492	50097.53
590.7	50016.87
590.907	49912.85
591.115	49880.82
591.322	49987.25
591.529	50204.85
591.737	50496.65
591.944	50781.45
592.151	51037.13
592.359	51249.78
592.566	51414.91
592.773	51525.47
592.981	51578.58
593.188	51646.33
593.395	51678.16
593.602	51631.38
593.809	51564.87
594.017	51450.93
594.224	51321.02
594.431	51184.22
594.638	51032.16
594.845	50878.96
595.052	50753.69
595.259	50647.95
595.466	50534.42
595.673	50401.35
595.88	50237.02
596.088	50026.29
596.295	49821.18
596.502	49642.62
596.709	49488.93
596.915	49382.69
597.122	49336.22
597.329	49390.73
597.536	49538
597.743	49719.35
597.95	49897.45
598.157	50018.07
598.364	50043.73
598.571	50045.49
598.777	50063.76
598.984	50109.62
599.191	50159.98
599.398	50220.93
599.605	50213.62
599.811	50153.53
600.018	50053.93
600.225	49923.96
600.431	49834.93
600.638	49796.64
600.845	49759.07
601.052	49723.75
601.258	49680.49
601.465	49657
601.671	49651.22
601.878	49644.15
602.085	49631.42
602.291	49588.44
602.498	49501.02
602.704	49333.95
602.911	49080.13
603.117	48764.36
603.324	48397.04
603.53	47985.91
603.737	47538.18
603.943	47046.13
604.15	46559.69
604.356	46056.85
604.562	45553.69
604.769	45056.69
604.975	44573.49
605.181	44129.56
605.388	43702.55
605.594	43301.82
605.8	42923.45
606.007	42538.4
606.213	42124.15
606.419	41663.22
606.625	41159.24
606.832	40643.22
607.038	40145.42
607.244	39674.42
607.45	39235.11
607.656	38799.15
607.863	38331.98
608.069	37844.24
608.275	37348.51
608.481	36910.35
608.687	36513.49
608.893	36139.29
609.099	35755.2
609.305	35339.35
609.511	34914.87
609.717	34484.53
609.923	34067.4
610.129	33660.49
610.335	33260.38
610.541	32850.67
610.747	32365.78
610.953	31843.71
611.159	31315.45
611.365	30804.89
611.571	30334.98
611.776	29874.87
611.982	29399.96
612.188	28917.29
612.394	28439.35
612.6	27966.71
612.806	27495.51
613.011	27046.07
613.217	26583.67
613.423	26126.53
613.628	25672.93
613.834	25220.87
614.04	24785.76
614.246	24375.75
614.451	23966.4
614.657	23547.58
614.862	23113.4
615.068	22683.05
615.274	22258.62
615.479	21872.89
615.685	21488.51
615.89	21115.07
616.096	20750.13
616.301	20372.05
616.507	19984.24
616.712	19605.62
616.918	19225.53
617.123	18856.75
617.329	18473.36
617.534	18094.98
617.74	17698.55
617.945	17307.6
618.15	16879.53
618.356	16185.58
618.561	14898.4
618.766	13329.18
618.972	11705.22
619.177	10127.31
619.382	8589.95
619.588	7107.69
619.793	6223.06
619.998	5185.29
620.203	3926.75
620.408	2402.74
620.614	897.53
