Data from dark_retry_MAYP1115451__0__09-39-36-776.txt Node

Date: Thu Jun 13 09:39:36 MDT 2024
User: Modes Lab
Spectrometer: MAYP111545
Trigger mode: 0
Integration Time (sec): 8.000000E-3
Scans to average: 5
Electric dark correction enabled: true
Nonlinearity correction enabled: false
Boxcar width: 5
XAxis mode: Wavelengths
Number of Pixels in Spectrum: 2068
>>>>>Begin Spectral Data<<<<<
165.214	155.37
165.449	148.64
165.683	150.25
165.918	152.08
166.152	152.52
166.387	153.45
166.621	76.94
166.856	107.54
167.09	118.5
167.325	134.19
167.559	144.79
167.794	154.01
168.028	158.61
168.263	158.92
168.497	157.28
168.732	157.77
168.966	157.65
169.2	158.52
169.435	158.9
169.669	159.01
169.903	158.77
170.138	158.81
170.372	157.94
170.606	157.54
170.841	157.01
171.075	157.65
171.309	157.37
171.544	156.99
171.778	155.94
172.012	155.32
172.246	154.9
172.48	154.9
172.715	155.03
172.949	155.61
173.183	155.57
173.417	156.05
173.651	157.14
173.885	156.59
174.119	156.48
174.354	157.01
174.588	157.39
174.822	158.45
175.056	158.57
175.29	158.68
175.524	158.7
175.758	158.48
175.992	157.59
176.226	156.06
176.46	157.26
176.694	157.1
176.928	156.72
177.162	157.66
177.396	155.97
177.63	156.12
177.864	155.88
178.097	156.35
178.331	157.26
178.565	157.23
178.799	158.01
179.033	156.7
179.267	156.81
179.5	156.19
179.734	154.88
179.968	156.28
180.202	155.12
180.436	155.61
180.669	154.94
180.903	154.3
181.137	153.95
181.371	153.19
181.604	153.23
181.838	153.35
182.072	153.95
182.305	154.52
182.539	153.74
182.772	154.23
183.006	154.3
183.24	153.83
183.473	155.99
183.707	156.41
183.94	156.54
184.174	156.21
184.408	155.75
184.641	156.23
184.875	155.88
185.108	155.95
185.342	156.25
185.575	156.25
185.808	156.94
186.042	155.37
186.275	154.86
186.509	155.15
186.742	155.85
186.976	155.95
187.209	154.94
187.442	155.03
187.676	154.74
187.909	154.32
188.142	154.08
188.376	153.5
188.609	152.95
188.842	152.83
189.076	152.75
189.309	152.79
189.542	153.12
189.775	153.77
190.009	153.63
190.242	154.28
190.475	154.39
190.708	154.34
190.941	155.12
191.174	155.39
191.408	155.63
191.641	155.41
191.874	155.43
192.107	155.95
192.34	155.55
192.573	155.85
192.806	155.79
193.039	155.7
193.272	155.3
193.505	154.19
193.738	154.26
193.971	154.63
194.204	154.57
194.437	154.5
194.67	154.08
194.903	154.26
195.136	154.32
195.369	153.75
195.602	153.9
195.835	154.55
196.068	155.17
196.301	154.63
196.533	154.68
196.766	154.46
196.999	155.63
197.232	155.37
197.465	155.34
197.698	154.55
197.93	155.19
198.163	155.39
198.396	155.19
198.629	154.35
198.861	154.81
199.094	154.79
199.327	154.86
199.559	152.86
199.792	152.97
200.025	153.19
200.257	153.77
200.49	153.52
200.723	154.14
200.955	153.9
201.188	154.55
201.42	154.81
201.653	154.61
201.886	155.28
202.118	156.17
202.351	155.85
202.583	156.14
202.816	156.61
203.048	156.57
203.281	155.66
203.513	156.1
203.745	156.48
203.978	155.66
204.21	155.7
204.443	154.74
204.675	154.35
204.907	154.74
205.14	154.01
205.372	153.41
205.605	154.19
205.837	154.1
206.069	153.48
206.302	153.46
206.534	153.92
206.766	154.05
206.998	154.75
207.231	154.66
207.463	154.77
207.695	155.28
207.927	155.83
208.159	155.15
208.392	155.85
208.624	155.85
208.856	155.59
209.088	155.81
209.32	155.75
209.552	155.9
209.784	156.97
210.017	156.88
210.249	156.85
210.481	156.23
210.713	156.68
210.945	155.86
211.177	156.37
211.409	156.45
211.641	155.83
211.873	156.39
212.105	155.99
212.337	155.32
212.569	155.28
212.801	154.59
213.033	154.88
213.264	154.26
213.496	154.74
213.728	154.57
213.96	154.43
214.192	154.26
214.424	153.92
214.656	154.59
214.887	154.5
215.119	155.46
215.351	156.21
215.583	155.74
215.815	156.12
216.046	156.83
216.278	156.55
216.51	156.95
216.741	157.61
216.973	158.12
217.205	158.12
217.436	158.32
217.668	158.75
217.9	158.3
218.131	158.61
218.363	158.52
218.595	157.81
218.826	158.26
219.058	158.37
219.289	158.21
219.521	157.21
219.752	156.66
219.984	156.52
220.215	154.94
220.447	155.23
220.678	155.14
220.91	155.77
221.141	155.45
221.373	155.77
221.604	155.34
221.836	156.14
222.067	156.74
222.298	156.72
222.53	156.95
222.761	156.95
222.993	157.26
223.224	157.59
223.455	157.19
223.686	157.55
223.918	157.1
224.149	157.34
224.38	156.52
224.612	156.12
224.843	156.32
225.074	156.79
225.305	157.12
225.536	156.35
225.768	156.65
225.999	156.57
226.23	156.06
226.461	155.52
226.692	155.5
226.923	155.81
227.155	157.35
227.386	157.59
227.617	156.59
227.848	155.94
228.079	157.86
228.31	157.1
228.541	157.5
228.772	159.15
229.003	159.15
229.234	159.23
229.465	158.94
229.696	157.46
229.927	157.32
230.158	157.25
230.389	156.97
230.62	156.39
230.85	156.59
231.081	155.88
231.312	154.94
231.543	154.86
231.774	154.97
232.005	154.59
232.236	154.1
232.466	153.68
232.697	154.39
232.928	155.52
233.159	154.5
233.389	154.72
233.62	154.66
233.851	154.52
234.082	154.81
234.312	154.39
234.543	154.86
234.774	155.15
235.004	155.35
235.235	155.66
235.466	155.23
235.696	155.9
235.927	156.15
236.157	156.72
236.388	156.85
236.618	157.41
236.849	157.34
237.08	157.81
237.31	158.48
237.541	158.55
237.771	157.43
238.002	157.83
238.232	156.92
238.463	156.83
238.693	156.17
238.923	156.19
239.154	155.21
239.384	155.39
239.615	154.61
239.845	153.85
240.075	153.74
240.306	153.65
240.536	153.25
240.766	153.75
240.997	153.26
241.227	153.61
241.457	153.94
241.687	154.41
241.918	155.14
242.148	155.61
242.378	156.34
242.608	156.25
242.839	156.94
243.069	156.81
243.299	155.99
243.529	158.85
243.759	158.52
243.989	157.75
244.22	158.12
244.45	157.08
244.68	156.97
244.91	157.19
245.14	157.12
245.37	157.5
245.6	158.23
245.83	159.08
246.06	156.28
246.29	156.94
246.52	157.15
246.75	157.26
246.98	158.39
247.21	158.19
247.44	157.7
247.67	158.05
247.9	157.57
248.13	156.65
248.359	156.61
248.589	157.08
248.819	156.35
249.049	156.17
249.279	155.5
249.509	154.79
249.738	154.95
249.968	154.48
250.198	154.03
250.428	154.08
250.657	153.83
250.887	153.72
251.117	153.72
251.347	153.39
251.576	154.08
251.806	154.55
252.036	153.75
252.265	153.63
252.495	154.12
252.725	154.19
252.954	154.12
253.184	154.01
253.413	154.55
253.643	154.54
253.873	155.12
254.102	154.55
254.332	153.95
254.561	154.86
254.791	154.5
255.02	154.72
255.25	154.88
255.479	155.32
255.708	155.74
255.938	155.28
256.167	154.46
256.397	153.61
256.626	153.95
256.856	154.01
257.085	153.32
257.314	153.75
257.544	153.63
257.773	153.72
258.002	153.7
258.232	152.99
258.461	152.95
258.69	153.65
258.919	154.39
259.149	153.99
259.378	154.08
259.607	153.41
259.836	152.77
260.065	151.9
260.295	151.86
260.524	151.23
260.753	151.99
260.982	151.94
261.211	151.81
261.44	151.21
261.669	151.08
261.899	151.01
262.128	151.77
262.357	151.46
262.586	151.54
262.815	151.3
263.044	150.97
263.273	152.77
263.502	152.59
263.731	152.12
263.96	152.68
264.189	152.35
264.418	152.68
264.646	152.92
264.875	152.99
265.104	152.9
265.333	153.79
265.562	153.86
265.791	151.46
266.02	150.95
266.249	151.01
266.477	151.01
266.706	151.28
266.935	150.43
267.164	150.48
267.393	150.52
267.621	150.88
267.85	149.65
268.079	150.32
268.307	150.66
268.536	150.72
268.765	151.3
268.993	150.95
269.222	150.28
269.451	150.92
269.679	150.94
269.908	151.1
270.137	150.48
270.365	149.81
270.594	148.81
270.822	148.46
271.051	148.43
271.279	147.06
271.508	146.86
271.736	147.21
271.965	146.83
272.193	145.54
272.422	145.9
272.65	146.12
272.879	146.74
273.107	146.35
273.336	146.03
273.564	146.26
273.792	146.9
274.021	146.81
274.249	147.28
274.477	147.03
274.706	147.86
274.934	147.3
275.162	147.14
275.391	147.35
275.619	148.55
275.847	148.97
276.075	148.86
276.304	149.41
276.532	150.1
276.76	149.46
276.988	149.23
277.216	149.65
277.445	149.99
277.673	150.63
277.901	150.97
278.129	150.45
278.357	150.74
278.585	150.65
278.813	150.46
279.041	149.48
279.269	149.85
279.497	149.92
279.725	148.97
279.954	148.54
280.182	148.03
280.41	147.28
280.637	146.77
280.865	146.59
281.093	147.54
281.321	147.43
281.549	147.59
281.777	147.92
282.005	147.72
282.233	148.74
282.461	148.21
282.689	147.9
282.916	148.59
283.144	149.34
283.372	149.7
283.6	148.66
283.828	148.46
284.055	149.21
284.283	149.03
284.511	149.26
284.739	149.37
284.966	149.59
285.194	150.14
285.422	149.39
285.649	148.88
285.877	148.21
286.105	149.06
286.332	149.19
286.56	148.95
286.788	148.61
287.015	149.79
287.243	149.01
287.47	149.35
287.698	149.26
287.925	149.97
288.153	149.94
288.381	150.21
288.608	149.35
288.836	148.79
289.063	148.97
289.29	149.12
289.518	148.37
289.745	148.46
289.973	149.12
290.2	149.25
290.428	148.92
290.655	149.1
290.882	148.77
291.11	149.08
291.337	149.39
291.564	149.23
291.792	149.23
292.019	148.99
292.246	148.74
292.473	148.26
292.701	148.03
292.928	147.55
293.155	147.35
293.382	148.05
293.61	147.86
293.837	147.52
294.064	147.52
294.291	147.21
294.518	147.06
294.745	146.99
294.972	146.59
295.2	147.14
295.427	148.43
295.654	148.3
295.881	147.01
296.108	147.06
296.335	146.95
296.562	146.86
296.789	147.39
297.016	147.55
297.243	147.19
297.47	147.97
297.697	147.19
297.924	146.48
298.151	146.25
298.378	147.46
298.604	146.74
298.831	146.75
299.058	146.25
299.285	146.03
299.512	146.35
299.739	146.81
299.966	147.12
300.192	147.05
300.419	146.77
300.646	147.35
300.873	146.46
301.099	146.7
301.326	147.39
301.553	147.19
301.78	148.23
302.006	147.7
302.233	147.54
302.46	146.28
302.686	146.41
302.913	146.1
303.14	145.86
303.366	146.06
303.593	146.03
303.819	145.17
304.046	145.65
304.272	144.85
304.499	145.08
304.725	145.08
304.952	145.5
305.179	145.77
305.405	147.06
305.631	147.01
305.858	146.61
306.084	146.77
306.311	147.08
306.537	146.77
306.764	146.19
306.99	146.14
307.216	146.74
307.443	146.7
307.669	147.05
307.895	145.68
308.122	144.7
308.348	144.97
308.574	144.45
308.801	144.26
309.027	145.23
309.253	144.83
309.479	144.34
309.706	144.57
309.932	144.9
310.158	144.17
310.384	143.85
310.61	145.14
310.837	145.5
311.063	145.52
311.289	145.72
311.515	144.97
311.741	145.23
311.967	145.94
312.193	145.35
312.419	145.43
312.645	145.45
312.871	145.94
313.097	145.55
313.323	145.63
313.549	146.9
313.775	147.35
314.001	146.88
314.227	146.63
314.453	146.3
314.679	146.25
314.905	146.23
315.131	145.83
315.357	146.03
315.583	145.52
315.809	145.21
316.034	144.1
316.26	143.81
316.486	143.99
316.712	144.1
316.938	143.72
317.163	143.08
317.389	142.57
317.615	142.74
317.841	142.72
318.066	143.54
318.292	143.74
318.518	143.68
318.743	142.81
318.969	142.97
319.195	143.21
319.42	142.9
319.646	142.95
319.872	142.95
320.097	143.43
320.323	143.46
320.548	143.65
320.774	143.14
320.999	143.52
321.225	144.77
321.45	145.23
321.676	145.03
321.901	145.63
322.127	146.05
322.352	146.46
322.578	146.12
322.803	145.32
323.029	145.59
323.254	145.92
323.479	145.35
323.705	144.3
323.93	143.19
324.155	143.55
324.381	143.26
324.606	143.3
324.831	142.77
325.057	142.45
325.282	143.1
325.507	142.68
325.732	142.95
325.958	143.83
326.183	144.7
326.408	144.86
326.633	145.12
326.858	146.03
327.084	146.25
327.309	145.61
327.534	146.37
327.759	146.48
327.984	146.28
328.209	145.9
328.434	145.68
328.659	145.37
328.884	146.75
329.109	145.95
329.334	145.14
329.559	145.14
329.784	145.81
330.009	145.54
330.234	145.19
330.459	144.54
330.684	145.14
330.909	145.35
331.134	144.72
331.359	143.63
331.584	144.25
331.809	143.81
332.034	143.03
332.259	142.74
332.483	142.57
332.708	142.92
332.933	143.66
333.158	142.55
333.383	142.63
333.607	143.1
333.832	143.12
334.057	142.34
334.282	142.86
334.506	143.43
334.731	144.23
334.956	144.95
335.18	144.21
335.405	143.48
335.63	143.77
335.854	143.01
336.079	142.26
336.303	141.95
336.528	142.05
336.753	142.06
336.977	141.79
337.202	141.01
337.426	140.17
337.651	140.57
337.875	140.99
338.1	140.86
338.324	140.46
338.549	141.01
338.773	141.75
338.997	141.63
339.222	141.46
339.446	141.34
339.671	141.94
339.895	141.72
340.119	141.75
340.344	141.86
340.568	142.25
340.792	143.06
341.017	142.61
341.241	141.86
341.465	141.72
341.689	140.77
341.914	140.86
342.138	140.1
342.362	140.7
342.586	140.9
342.811	140.97
343.035	140.45
343.259	139.54
343.483	140.48
343.707	140.74
343.931	142.28
344.155	142.94
344.38	143.72
344.604	145.35
344.828	145.08
345.052	144.72
345.276	143.9
345.5	143.65
345.724	143.55
345.948	142.88
346.172	142.9
346.396	142.01
346.62	142.88
346.844	142.25
347.068	140.72
347.292	140.52
347.515	141.39
347.739	143.95
347.963	144.03
348.187	144.5
348.411	145.21
348.635	145.17
348.859	144.28
349.082	143.75
349.306	142.95
349.53	142.95
349.754	143.26
349.977	142.3
350.201	139.66
350.425	140.21
350.649	140.19
350.872	139.55
351.096	139.77
351.32	140.9
351.543	141.65
351.767	142.77
351.99	142.81
352.214	142.46
352.438	142.86
352.661	142.79
352.885	142.77
353.108	142.92
353.332	142.77
353.555	142.17
353.779	141.43
354.002	140.86
354.226	140.35
354.449	140.23
354.673	140.43
354.896	139.46
355.12	139.94
355.343	139.39
355.566	139.66
355.79	139.79
356.013	140.28
356.237	140.46
356.46	140.59
356.683	140.65
356.907	141.03
357.13	140.86
357.353	141.23
357.576	140.63
357.8	141.23
358.023	140.92
358.246	141.28
358.469	141.25
358.693	141.39
358.916	140.81
359.139	140.48
359.362	140.34
359.585	140.12
359.808	140.21
360.031	140.43
360.255	140.74
360.478	141.39
360.701	141.06
360.924	140.72
361.147	140.35
361.37	140.77
361.593	141.19
361.816	141.19
362.039	141.83
362.262	141.85
362.485	142.32
362.708	141.54
362.931	140.61
363.154	140.57
363.377	140.3
363.599	140.34
363.822	140.55
364.045	140.72
364.268	139.99
364.491	139.7
364.714	139.86
364.936	140.06
365.159	140.77
365.382	140.92
365.605	140.41
365.828	141.57
366.05	141.65
366.273	141.45
366.496	140.9
366.718	141.5
366.941	141.25
367.164	141.25
367.386	141.25
367.609	140.83
367.832	141.52
368.054	142.1
368.277	142.12
368.5	141.9
368.722	141.7
368.945	141.7
369.167	141.88
369.39	141.81
369.612	142.01
369.835	142.46
370.057	142.68
370.28	142.28
370.502	141.72
370.725	141.01
370.947	141.32
371.169	141.3
371.392	142.35
371.614	142.14
371.837	142.39
372.059	142.57
372.281	141.79
372.504	142.15
372.726	141.46
372.948	141.03
373.171	141.06
373.393	140.95
373.615	141.21
373.837	141.32
374.06	141.52
374.282	141.94
374.504	141.61
374.726	141.5
374.948	140.92
375.17	141.1
375.393	142.88
375.615	143.25
375.837	143.06
376.059	143.59
376.281	142.26
376.503	142.03
376.725	141.03
376.947	141.19
377.169	141.45
377.391	141.37
377.613	142.63
377.835	142.46
378.057	141.75
378.279	141.97
378.501	141.21
378.723	141.54
378.945	141.32
379.167	141.85
379.389	141.92
379.611	141.72
379.833	141.63
380.054	141.19
380.276	140.52
380.498	140.32
380.72	140.35
380.942	140.34
381.163	140.15
381.385	140.54
381.607	140.75
381.829	141.14
382.05	140.94
382.272	141.23
382.494	140.43
382.716	140.61
382.937	140.37
383.159	140.72
383.381	140.92
383.602	140.85
383.824	140.79
384.045	140.25
384.267	139.12
384.488	139.92
384.71	139.45
384.932	140.01
385.153	139.74
385.375	140.72
385.596	140.03
385.818	139.59
386.039	139.54
386.261	139.94
386.482	140.52
386.703	140.85
386.925	139.92
387.146	140.66
387.368	140.61
387.589	140.54
387.81	140.5
388.032	140.19
388.253	141.26
388.474	142.15
388.696	141.63
388.917	141.14
389.138	141.63
389.359	142.17
389.581	141.7
389.802	141.72
390.023	142.21
390.244	141.63
390.465	142.66
390.687	141.81
390.908	140.9
391.129	141.59
391.35	141.45
391.571	140.81
391.792	140.32
392.013	140.35
392.234	139.65
392.455	139.45
392.677	138.94
392.898	138.7
393.119	138.88
393.34	139.1
393.561	138.21
393.782	138.57
394.003	139.03
394.223	139.37
394.444	139.48
394.665	139.26
394.886	139.54
395.107	140.35
395.328	139.95
395.549	138.81
395.77	139.28
395.99	139.14
396.211	138.66
396.432	138.52
396.653	139.1
396.874	138.88
397.094	139.61
397.315	139.05
397.536	139.32
397.757	139.15
397.977	140.01
398.198	138.99
398.419	139.41
398.639	139.52
398.86	139.74
399.081	138.83
399.301	139.61
399.522	139.5
399.742	139.52
399.963	138.37
400.184	138.45
400.404	138.1
400.625	138.15
400.845	138.06
401.066	137.72
401.286	137.72
401.507	137.94
401.727	137.55
401.948	137.52
402.168	137.17
402.388	138.08
402.609	138.72
402.829	139.77
403.05	140.63
403.27	140.26
403.49	140.59
403.711	140.34
403.931	140.08
404.151	139.59
404.372	139.83
404.592	140.19
404.812	139.92
405.032	139.68
405.253	139.55
405.473	139.54
405.693	139.79
405.913	140.28
406.133	139.85
406.353	143.06
406.574	143.55
406.794	143.63
407.014	144.65
407.234	144.97
407.454	145.1
407.674	144.63
407.894	144.45
408.114	144.81
408.334	144.79
408.554	144.92
408.774	141.48
408.994	140.55
409.214	140.75
409.434	139.94
409.654	139.74
409.874	139.52
410.094	139.52
410.314	139.21
410.534	139.03
410.754	139.1
410.974	139.12
411.193	139.34
411.413	139.81
411.633	139.5
411.853	139.28
412.073	139.14
412.292	139.23
412.512	139.06
412.732	139.23
412.952	138.95
413.171	138.25
413.391	138.3
413.611	137.83
413.831	137.94
414.05	138.06
414.27	138.17
414.489	138.1
414.709	137.97
414.929	138.57
415.148	138.15
415.368	138.14
415.587	138.23
415.807	138.37
416.026	138.95
416.246	138.95
416.465	138.59
416.685	138.81
416.904	138.46
417.124	138.3
417.343	137.94
417.563	138.54
417.782	138.19
418.002	139.23
418.221	139.15
418.44	138.83
418.66	138.3
418.879	137.97
419.098	137.85
419.318	138.61
419.537	139.45
419.756	139.08
419.976	138.01
420.195	138.08
420.414	137.28
420.633	137.59
420.853	137.68
421.072	138.12
421.291	138.23
421.51	138.12
421.729	136.77
421.948	136.12
422.168	135.7
422.387	136.74
422.606	136.72
422.825	136.03
423.044	135.01
423.263	135.14
423.482	135.1
423.701	134.97
423.92	134.35
424.139	135.99
424.358	135.19
424.577	135.19
424.796	135.25
425.015	135.19
425.234	135.45
425.453	135.48
425.672	135.05
425.891	134.12
426.11	134.54
426.328	134.92
426.547	134.28
426.766	135.3
426.985	135.65
427.204	135.52
427.422	136.23
427.641	136.63
427.86	136.97
428.079	137.21
428.297	137.19
428.516	136.61
428.735	137.08
428.954	137.15
429.172	136.19
429.391	137.12
429.61	137.14
429.828	136.34
430.047	136.45
430.265	136.32
430.484	136.26
430.703	137.17
430.921	137.57
431.14	136.9
431.358	136.32
431.577	136.21
431.795	135.25
432.014	135.05
432.232	135.68
432.451	135.92
432.669	136.77
432.887	136.9
433.106	137.12
433.324	136.7
433.543	137.7
433.761	138.32
433.979	138.77
434.198	139.08
434.416	139.32
434.634	139.32
434.853	138.99
435.071	138.17
435.289	137.3
435.507	136.3
435.726	135.79
435.944	135.39
436.162	134.57
436.38	135.14
436.598	135.25
436.817	134.34
437.035	133.92
437.253	133.5
437.471	133.19
437.689	134.17
437.907	134.43
438.125	135.1
438.343	134.05
438.561	134.06
438.78	133.41
438.998	133.03
439.216	133.05
439.434	133.26
439.652	133.57
439.869	133.61
440.087	133.32
440.305	134.19
440.523	134.35
440.741	134.32
440.959	134.48
441.177	134.43
441.395	134.39
441.613	135.65
441.831	134.28
442.048	133.19
442.266	133.57
442.484	133.81
442.702	133.01
442.919	132.83
443.137	134.12
443.355	134.01
443.573	135.28
443.79	134.99
444.008	133.61
444.226	134.7
444.443	135.74
444.661	135.34
444.879	135.54
445.096	136.26
445.314	136.14
445.532	134.94
445.749	135.35
445.967	133.43
446.184	134.19
446.402	133.99
446.619	133.7
446.837	133.86
447.054	134.08
447.272	133.39
447.489	133.17
447.707	132.3
447.924	132.77
448.141	132.77
448.359	133.52
448.576	132.3
448.794	132.63
449.011	132.85
449.228	132.83
449.446	132.32
449.663	132.05
449.88	131.55
450.098	132.97
450.315	132.65
450.532	132.1
450.749	132.25
450.967	132.7
451.184	133.01
451.401	133.12
451.618	132.45
451.835	133.15
452.052	134.37
452.27	133.99
452.487	133.74
452.704	133.79
452.921	133.74
453.138	133.83
453.355	133.01
453.572	133.26
453.789	132.15
454.006	132.41
454.223	131.72
454.44	130.75
454.657	130.54
454.874	130.3
455.091	129.85
455.308	130.23
455.525	129.7
455.742	130.65
455.959	130.05
456.176	131.17
456.393	130.9
456.609	131.57
456.826	131.65
457.043	132.45
457.26	131.81
457.477	131.79
457.693	131.35
457.91	131.41
458.127	130.92
458.344	131.19
458.56	130.15
458.777	130.23
458.994	129.97
459.21	129.28
459.427	129.19
459.644	129.03
459.86	129.48
460.077	129.66
460.294	130.3
460.51	130.19
460.727	129.79
460.943	130.66
461.16	131.1
461.376	130.61
461.593	131.79
461.809	131.14
462.026	131.55
462.242	131.59
462.459	131.55
462.675	130.99
462.892	131.94
463.108	131.7
463.324	131.34
463.541	130.94
463.757	131.03
463.974	129.99
464.19	130.59
464.406	131.08
464.623	130.41
464.839	130.32
465.055	130.23
465.271	129.77
465.488	130.19
465.704	130.83
465.92	130.77
466.136	130.85
466.353	131.61
466.569	131.28
466.785	130.79
467.001	130.81
467.217	130.9
467.433	130.88
467.649	130.55
467.865	130.23
468.082	129.68
468.298	129.37
468.514	129.86
468.73	129.52
468.946	129.3
469.162	129.48
469.378	129.66
469.594	129.17
469.81	128.72
470.026	128.54
470.242	129.15
470.457	128.5
470.673	128.68
470.889	128.57
471.105	128.85
471.321	129.12
471.537	128.95
471.753	129.26
471.968	129.79
472.184	130.14
472.4	129.95
472.616	129.83
472.832	130.01
473.047	130.1
473.263	129.52
473.479	129.48
473.694	129.83
473.91	129.88
474.126	129.77
474.341	129.14
474.557	128.95
474.773	129.39
474.988	129.25
475.204	129.37
475.42	129.48
475.635	129.66
475.851	129.66
476.066	128.88
476.282	128.59
476.497	128.19
476.713	128.25
476.928	128.72
477.144	128.19
477.359	128.05
477.575	128.14
477.79	128.01
478.005	127.94
478.221	127.61
478.436	127.52
478.651	127.23
478.867	127.77
479.082	127.72
479.297	127.63
479.513	127.75
479.728	127.3
479.943	127.55
480.159	127.08
480.374	126.9
480.589	126.45
480.804	126.21
481.019	126.34
481.235	126.41
481.45	126.45
481.665	126.08
481.88	126.08
482.095	126.52
482.31	126.14
482.525	126.3
482.741	127.05
482.956	127.35
483.171	128.54
483.386	128.25
483.601	127.86
483.816	128.17
484.031	127.39
484.246	127.26
484.461	126.26
484.676	126.7
484.891	128.45
485.105	127.88
485.32	127.77
485.535	127.75
485.75	128.65
485.965	127.99
486.18	128.14
486.395	128.35
486.609	128.74
486.824	129.81
487.039	129.32
487.254	127.79
487.469	127.74
487.683	127.74
487.898	127.54
488.113	127.26
488.327	127.85
488.542	127.85
488.757	128.23
488.972	128.63
489.186	127.86
489.401	127.41
489.615	127.23
489.83	127.54
490.045	127.65
490.259	127.39
490.474	128.34
490.688	128.5
490.903	128.75
491.117	128.01
491.332	127.55
491.546	128.55
491.761	129.34
491.975	129.88
492.19	129.14
492.404	129.65
492.618	129.52
492.833	128.19
493.047	127.77
493.262	127.41
493.476	128.34
493.69	128.65
493.905	128.26
494.119	128.66
494.333	127.94
494.547	128.66
494.762	128.79
494.976	129.19
495.19	129.21
495.404	128.81
495.619	128.81
495.833	128.66
496.047	127.81
496.261	127.46
496.475	127.85
496.689	127.9
496.903	127.57
497.117	127.97
497.332	127.3
497.546	127.94
497.76	129.05
497.974	129.14
498.188	129.23
498.402	129.72
498.616	130.23
498.83	129.55
499.044	130.35
499.258	130.17
499.472	128.81
499.685	129.19
499.899	128.7
500.113	127.94
500.327	127.61
500.541	127.41
500.755	126.83
500.969	126.79
501.183	126.39
501.396	126.08
501.61	126.52
501.824	126.83
502.038	125.85
502.251	126.1
502.465	126.41
502.679	126.12
502.892	125.92
503.106	126.39
503.32	126.19
503.533	125.25
503.747	124.55
503.961	124.3
504.174	124.61
504.388	125.25
504.602	125.34
504.815	125.17
505.029	125.85
505.242	126.54
505.456	126.37
505.669	126.12
505.883	127.05
506.096	127.55
506.31	127.63
506.523	127.05
506.736	126.86
506.95	127.17
507.163	127.48
507.377	127.46
507.59	127.41
507.803	128.3
508.017	128.19
508.23	127.97
508.443	128.26
508.657	127.59
508.87	127.68
509.083	128.41
509.296	128.05
509.51	127.41
509.723	127.52
509.936	127.54
510.149	126.94
510.363	126.75
510.576	127.28
510.789	127.21
511.002	127.06
511.215	127.25
511.428	126.41
511.641	126.34
511.854	127.05
512.067	126.1
512.28	130.55
512.493	130.85
512.707	131.05
512.92	130.46
513.132	129.97
513.345	130.59
513.558	131.43
513.771	131.17
513.984	131.14
514.197	130.72
514.41	130.99
514.623	126.57
514.836	125.74
515.049	126.85
515.262	126.88
515.474	127.06
515.687	127.32
515.9	126.99
516.113	127.92
516.325	126.86
516.538	126.59
516.751	127.39
516.964	126.79
517.176	126.9
517.389	125.97
517.602	126.3
517.814	126.37
518.027	126.75
518.24	125.66
518.452	125.5
518.665	125.66
518.877	126.23
519.09	125.57
519.303	126.08
519.515	126.23
519.728	126.03
519.94	125.94
520.153	126.3
520.365	125.3
520.578	125.39
520.79	125.19
521.002	126.17
521.215	125.72
521.427	125.81
521.64	125.15
521.852	125.3
522.064	125.35
522.277	125.88
522.489	124.88
522.701	125.17
522.914	126.39
523.126	126.28
523.338	126.08
523.551	126.19
523.763	126.57
523.975	126.88
524.187	126.94
524.399	126.57
524.612	125.66
524.824	125.41
525.036	125.99
525.248	124.9
525.46	124.83
525.672	124.88
525.884	124.48
526.096	124.34
526.308	123.83
526.521	124.08
526.733	124.03
526.945	124.25
527.157	124.28
527.369	124.32
527.581	123.77
527.793	123.88
528.004	122.79
528.216	123.32
528.428	123.25
528.64	123.06
528.852	122.39
529.064	123.34
529.276	123.43
529.488	123.81
529.699	123.43
529.911	124.06
530.123	123.55
530.335	124.15
530.547	123.66
530.758	123.19
530.97	123.43
531.182	123.15
531.393	123.15
531.605	123.46
531.817	123.1
532.029	122.85
532.24	123.1
532.452	123.77
532.663	124.1
532.875	124.59
533.087	124.59
533.298	124.88
533.51	125.19
533.721	124.48
533.933	123.68
534.144	125.05
534.356	124.59
534.567	124.43
534.779	124.12
534.99	123.72
535.202	123.19
535.413	122.63
535.624	122.39
535.836	123.23
536.047	123.3
536.259	123.28
536.47	122.79
536.681	123.57
536.893	123.72
537.104	123.61
537.315	124.08
537.526	124.43
537.738	125.23
537.949	125.3
538.16	124.48
538.371	124.86
538.582	128.52
538.794	127.46
539.005	127.7
539.216	127.75
539.427	127.85
539.638	128.15
539.849	127.83
540.06	127.52
540.272	127.26
540.483	127.03
540.694	126.99
540.905	123.81
541.116	124.5
541.327	123.54
541.538	123.54
541.749	123.1
541.96	122.45
542.17	122.41
542.381	122.77
542.592	123.15
542.803	123.26
543.014	122.21
543.225	122.35
543.436	121.95
543.647	122.3
543.857	121.54
544.068	121.61
544.279	121.86
544.49	122.66
544.701	122.12
544.911	121.88
545.122	121.37
545.333	121.61
545.543	121.39
545.754	121.63
545.965	121.26
546.175	121.66
546.386	122.17
546.597	121.88
546.807	120.68
547.018	121.48
547.229	121.54
547.439	122.52
547.65	122.65
547.86	122.59
548.071	122.26
548.281	122.01
548.492	121.85
548.702	121.43
548.913	121.52
549.123	121.48
549.333	120.72
549.544	120.32
549.754	119.55
549.965	120.35
550.175	120.61
550.385	120.57
550.596	121.23
550.806	120.97
551.016	121.86
551.227	121.43
551.437	121.72
551.647	121.48
551.857	122.68
552.068	123.45
552.278	122.3
552.488	122.17
552.698	122.83
552.908	122.9
553.119	123.05
553.329	121.85
553.539	122.14
553.749	122.23
553.959	122.3
554.169	121.46
554.379	121.17
554.589	121.5
554.799	121.25
555.009	121.21
555.219	120.15
555.429	120.52
555.639	120.94
555.849	120.99
556.059	120.95
556.269	121.05
556.479	120.5
556.689	120.14
556.899	120.86
557.109	121.21
557.319	121.1
557.528	121.48
557.738	120.74
557.948	121.01
558.158	121.43
558.368	121.46
558.577	121.59
558.787	121.54
558.997	121.48
559.207	120.86
559.416	120.92
559.626	119.97
559.836	119.95
560.045	120.57
560.255	120.43
560.465	119.46
560.674	120.06
560.884	120.54
561.093	120.95
561.303	121.81
561.512	121.74
561.722	121.19
561.932	121.86
562.141	122.34
562.351	121.74
562.56	121.59
562.769	122.12
562.979	121.7
563.188	122.66
563.398	122.28
563.607	121.72
563.817	121.95
564.026	121.95
564.235	122.05
564.445	121.9
564.654	122.05
564.863	121.92
565.073	121.1
565.282	121.14
565.491	119.1
565.7	119.95
565.91	119.68
566.119	119.32
566.328	119.5
566.537	119.74
566.746	119.21
566.956	119.15
567.165	118.06
567.374	118.37
567.583	118.06
567.792	118.21
568.001	117.21
568.21	116.57
568.419	116.85
568.628	115.9
568.837	115.5
569.046	115.55
569.255	116.06
569.464	116.88
569.673	117.34
569.882	117.92
570.091	118.61
570.3	119.1
570.509	119.92
570.718	118.92
570.927	119.25
571.135	118.79
571.344	118.39
571.553	117.88
571.762	117.57
571.971	117.1
572.18	116.5
572.388	116.41
572.597	115.95
572.806	115.25
573.014	115.85
573.223	115.81
573.432	115.61
573.641	116.03
573.849	115.68
574.058	115.83
574.266	115.79
574.475	115.32
574.684	114.97
574.892	115.39
575.101	114.92
575.309	114.94
575.518	114.61
575.726	114.86
575.935	115.1
576.143	114.94
576.352	114.06
576.56	114.12
576.769	114.32
576.977	113.85
577.186	113.52
577.394	113.81
577.602	113.65
577.811	113.94
578.019	113.68
578.228	113.61
578.436	114.79
578.644	115.54
578.852	115.03
579.061	114.34
579.269	113.59
579.477	113.57
579.685	113.97
579.894	113.59
580.102	113.1
580.31	112.65
580.518	112.79
580.726	112.23
580.935	111.97
581.143	112.55
581.351	112.88
581.559	113.39
581.767	112.14
581.975	110.77
582.183	109.43
582.391	107.28
582.599	104.28
582.807	99.77
583.015	95.06
583.223	89.97
583.431	83.57
583.639	77.75
583.847	71.99
584.055	66.79
584.263	61.48
584.471	56.48
584.678	52.77
584.886	51.19
585.094	48.19
585.302	45.77
585.51	45.14
585.718	43.92
585.925	43.08
586.133	42.63
586.341	41.99
586.549	41.7
586.756	41.26
586.964	41.03
587.172	39.26
587.379	39.86
587.587	39.83
587.795	39.08
588.002	39.79
588.21	43.06
588.417	43.28
588.625	43.35
588.833	43.43
589.04	43.95
589.248	43.57
589.455	43.55
589.663	43.21
589.87	43.06
590.078	43.28
590.285	42.52
590.492	39.54
590.7	39.41
590.907	38.86
591.115	38.43
591.322	38.01
591.529	37.57
591.737	37.45
591.944	37.21
592.151	37.26
592.359	36.63
592.566	36.97
592.773	37.03
592.981	35.99
593.188	36.81
593.395	36.68
593.602	36.65
593.809	37.08
594.017	36.74
594.224	36.7
594.431	36.85
594.638	36.79
594.845	36.45
595.052	36.03
595.259	37.3
595.466	36.94
595.673	37.06
595.88	37.28
596.088	37.26
596.295	37.39
596.502	37.03
596.709	37.05
596.915	37.88
597.122	37.9
597.329	38.37
597.536	37.26
597.743	37.92
597.95	37.81
598.157	37.34
598.364	37.25
598.571	37.72
598.777	37.88
598.984	37.5
599.191	36.77
599.398	36.94
599.605	36.14
599.811	36.32
600.018	35.14
600.225	35.5
600.431	35.28
600.638	34.79
600.845	34.63
601.052	34.5
601.258	33.94
601.465	33.7
601.671	33.61
601.878	33.77
602.085	33.28
602.291	32.94
602.498	32.88
602.704	32.97
602.911	33.26
603.117	33.14
603.324	33.14
603.53	33.88
603.737	34.01
603.943	33.97
604.15	33.52
604.356	34.97
604.562	35.26
604.769	34.59
604.975	34.9
605.181	34.9
605.388	34.19
605.594	33.88
605.8	33.23
606.007	33.35
606.213	32.97
606.419	33.57
606.625	32.65
606.832	33.28
607.038	33.65
607.244	33.34
607.45	33.5
607.656	33.99
607.863	34.03
608.069	34.26
608.275	34.34
608.481	34.5
608.687	34.01
608.893	34.19
609.099	34.35
609.305	34.57
609.511	34.28
609.717	34.05
609.923	34.19
610.129	34.34
610.335	34.74
610.541	34.61
610.747	34.66
610.953	34.92
611.159	34.68
611.365	34.35
611.571	34.28
611.776	34.81
611.982	34.72
612.188	34.83
612.394	34.86
612.6	34.65
612.806	34.46
613.011	34.74
613.217	34.57
613.423	34.39
613.628	34.01
613.834	33.83
614.04	33.15
614.246	33.3
614.451	32.55
614.657	32.72
614.862	33.15
615.068	33.03
615.274	32.94
615.479	33.46
615.685	33.81
615.89	33.66
616.096	33.41
616.301	33.3
616.507	33.7
616.712	33.88
616.918	33.83
617.123	33.34
617.329	33.32
617.534	33.17
617.74	32.81
617.945	33.17
618.15	33.35
618.356	33.54
618.561	34.08
618.766	33.85
618.972	30.81
619.177	26.99
619.382	23.39
619.588	20.05
619.793	18.82
619.998	17.06
620.203	14.12
620.408	11.61
620.614	8
