Data from blankd_MAYP1115451__0__11-04-13-347.txt Node

Date: Thu May 23 11:04:13 MDT 2024
User: Modes Lab
Spectrometer: MAYP111545
Trigger mode: 0
Integration Time (sec): 7.200000E-3
Scans to average: 5
Electric dark correction enabled: true
Nonlinearity correction enabled: false
Boxcar width: 5
XAxis mode: Wavelengths
Number of Pixels in Spectrum: 2068
>>>>>Begin Spectral Data<<<<<
165.214	5329.5
165.449	4585.1
165.683	4036.62
165.918	3612.32
166.152	3271.48
166.387	2992.37
166.621	98.12
166.856	132.46
167.09	147.45
167.325	167.17
167.559	180.57
167.794	193.54
168.028	201.74
168.263	202.63
168.497	200.81
168.732	200.15
168.966	200.94
169.2	200.77
169.435	201.99
169.669	202.1
169.903	203.01
170.138	205.1
170.372	205.17
170.606	204.55
170.841	204.9
171.075	205.74
171.309	206.94
171.544	206.86
171.778	207.54
172.012	207.75
172.246	207.28
172.48	207.43
172.715	207.83
172.949	208.97
173.183	209.75
173.417	209.92
173.651	210.08
173.885	211.14
174.119	211.28
174.354	212.01
174.588	212.06
174.822	213.59
175.056	213.55
175.29	213.37
175.524	213.74
175.758	214.06
175.992	215.21
176.226	215.9
176.46	216.01
176.694	217.65
176.928	217.92
177.162	218.19
177.396	218.48
177.63	219.7
177.864	220.77
178.097	222.08
178.331	223.32
178.565	223.15
178.799	223.99
179.033	224.9
179.267	224.66
179.5	225.3
179.734	226.74
179.968	228.45
180.202	230.14
180.436	232.23
180.669	234.68
180.903	237.12
181.137	240.12
181.371	243.79
181.604	247.12
181.838	253.39
182.072	259.12
182.305	265.85
182.539	272.34
182.772	279.3
183.006	286.88
183.24	293.68
183.473	304.57
183.707	314.55
183.94	326.77
184.174	340.37
184.408	352.34
184.641	367.45
184.875	382.95
185.108	399.3
185.342	416.57
185.575	436.94
185.808	461.1
186.042	486.37
186.275	513.75
186.509	539.7
186.742	564.74
186.976	590.99
187.209	617.97
187.442	647.15
187.676	680.14
187.909	715.95
188.142	750.92
188.376	783.5
188.609	814.74
188.842	841.7
189.076	869.54
189.309	902.83
189.542	941.26
189.775	983.15
190.009	1026.54
190.242	1067.39
190.475	1105.63
190.708	1141.63
190.941	1176.83
191.174	1212.61
191.408	1255.23
191.641	1303.61
191.874	1351.65
192.107	1397.21
192.34	1442.05
192.573	1486.55
192.806	1530.79
193.039	1576.08
193.272	1622.9
193.505	1673.3
193.738	1725.12
193.971	1778.37
194.204	1830.37
194.437	1878.74
194.67	1926.99
194.903	1974.05
195.136	2022.12
195.369	2072.37
195.602	2126.21
195.835	2180.32
196.068	2234.52
196.301	2288.68
196.533	2341.57
196.766	2391.5
196.999	2446.32
197.232	2499.48
197.465	2553.54
197.698	2606.35
197.93	2661.39
198.163	2717.32
198.396	2774.21
198.629	2832.23
198.861	2894.14
199.094	2955.79
199.327	3019.06
199.559	3080.41
199.792	3145.92
200.025	3210.41
200.257	3280.37
200.49	3349.85
200.723	3416.14
200.955	3488.85
201.188	3563.14
201.42	3634.3
201.653	3711.81
201.886	3791.68
202.118	3872.94
202.351	3956.59
202.583	4042.23
202.816	4123.5
203.048	4207.03
203.281	4299.79
203.513	4391.08
203.745	4483.57
203.978	4581.43
204.21	4677.3
204.443	4777.37
204.675	4878.77
204.907	4978.7
205.14	5083.79
205.372	5196.26
205.605	5308.74
205.837	5425.9
206.069	5538.17
206.302	5658.26
206.534	5777.28
206.766	5902.32
206.998	6025.61
207.231	6153.45
207.463	6286.94
207.695	6422.75
207.927	6556.21
208.159	6696.74
208.392	6831.52
208.624	6977.75
208.856	7118.97
209.088	7268.88
209.32	7417.99
209.552	7564.65
209.784	7719.12
210.017	7876.74
210.249	8032.95
210.481	8192.01
210.713	8355.26
210.945	8519.9
211.177	8685.06
211.409	8857.1
211.641	9026.54
211.873	9200.54
212.105	9383.01
212.337	9564.03
212.569	9744.66
212.801	9929.43
213.033	10124.99
213.264	10323.1
213.496	10520.3
213.728	10720.43
213.96	10926.26
214.192	11132.3
214.424	11344.26
214.656	11562.79
214.887	11775.46
215.119	11999.41
215.351	12226.34
215.583	12445.05
215.815	12668.86
216.046	12902.23
216.278	13136.1
216.51	13372.83
216.741	13607.85
216.973	13843.65
217.205	14077.12
217.436	14324.66
217.668	14561.74
217.9	14802.59
218.131	15049.7
218.363	15296.55
218.595	15540.41
218.826	15788.19
219.058	16042.57
219.289	16294.99
219.521	16548.15
219.752	16805.94
219.984	17065.74
220.215	17338.03
220.447	17605.39
220.678	17874.9
220.91	18139.61
221.141	18419.35
221.373	18689.03
221.604	18957.23
221.836	19238.28
222.067	19518.26
222.298	19805.45
222.53	20088.25
222.761	20368.41
222.993	20658.63
223.224	20946.75
223.455	21241.77
223.686	21522.74
223.918	21815.3
224.149	22105.54
224.38	22403.08
224.612	22710.66
224.843	22999.7
225.074	23297.86
225.305	23597.15
225.536	23881.81
225.768	24182.55
225.999	24482.12
226.23	24779.28
226.461	25085.17
226.692	25382.1
226.923	25670.66
227.155	25951.95
227.386	26246.28
227.617	26541.68
227.848	26840.79
228.079	27152.86
228.31	27457.15
228.541	27749.81
228.772	28053.75
229.003	28343.25
229.234	28642.7
229.465	28947.3
229.696	29244.28
229.927	29541.85
230.158	29834.06
230.389	30115.05
230.62	30401.57
230.85	30679.9
231.081	30972.68
231.312	31258.86
231.543	31538.45
231.774	31822.21
232.005	32099.19
232.236	32389.95
232.466	32669.06
232.697	32942.19
232.928	33219.45
233.159	33479.65
233.389	33742.88
233.62	33995.63
233.851	34234.41
234.082	34486.63
234.312	34715.85
234.543	34931.95
234.774	35130.92
235.004	35330.79
235.235	35520.15
235.466	35691.37
235.696	35870.43
235.927	36042.95
236.157	36217.66
236.388	36395.95
236.618	36560.83
236.849	36723.83
237.08	36876.34
237.31	37029.28
237.541	37192.35
237.771	37351.99
238.002	37505.97
238.232	37649.74
238.463	37781.66
238.693	37902.19
238.923	38025.88
239.154	38137.81
239.384	38259.75
239.615	38372.63
239.845	38490.23
240.075	38586.88
240.306	38678.9
240.536	38787.83
240.766	38874.79
240.997	38970.92
241.227	39078.23
241.457	39171.59
241.687	39264.54
241.918	39355.43
242.148	39451.54
242.378	39540.34
242.608	39628.72
242.839	39718.5
243.069	39794.95
243.299	39895.19
243.529	39986.52
243.759	40050.26
243.989	40125.05
244.22	40205.9
244.45	40283.39
244.68	40359.39
244.91	40427.9
245.14	40499.32
245.37	40582.57
245.6	40657.5
245.83	40726.19
246.06	40791.81
246.29	40870.86
246.52	40941.12
246.75	41008.41
246.98	41075.7
247.21	41150.75
247.44	41217.99
247.67	41292.63
247.9	41344.19
248.13	41406.92
248.359	41480.17
248.589	41557.37
248.819	41626.1
249.049	41700.95
249.279	41774.35
249.509	41842.88
249.738	41907.01
249.968	41979.77
250.198	42043.5
250.428	42110.3
250.657	42174.01
250.887	42233.63
251.117	42283.72
251.347	42350.72
251.576	42403.32
251.806	42464.83
252.036	42516.25
252.265	42581.81
252.495	42637.94
252.725	42690.32
252.954	42741.17
253.184	42794.75
253.413	42841.48
253.643	42896.17
253.873	42927.85
254.102	42969.26
254.332	43005.21
254.561	43037.03
254.791	43070.92
255.02	43104.3
255.25	43146.54
255.479	43198.43
255.708	43249.03
255.938	43285.77
256.167	43317.41
256.397	43367.81
256.626	43403.15
256.856	43432.75
257.085	43462.08
257.314	43478.68
257.544	43490.28
257.773	43504.05
258.002	43519.01
258.232	43545.06
258.461	43570.66
258.69	43605.46
258.919	43616.97
259.149	43646.01
259.378	43674.77
259.607	43712.9
259.836	43754.95
260.065	43811.01
260.295	43861.34
260.524	43893.1
260.753	43922.32
260.982	43948.75
261.211	43973.45
261.44	44022.54
261.669	44050.86
261.899	44098.15
262.128	44148.77
262.357	44186.41
262.586	44212.63
262.815	44240.61
263.044	44270.57
263.273	44298.17
263.502	44333.05
263.731	44363.94
263.96	44375.1
264.189	44407.06
264.418	44426.66
264.646	44443.03
264.875	44477.61
265.104	44524.61
265.333	44562.23
265.562	44612.37
265.791	44643.79
266.02	44692.23
266.249	44739.65
266.477	44792.19
266.706	44841.23
266.935	44896.06
267.164	44945.68
267.393	44998.23
267.621	45052.55
267.85	45106.9
268.079	45166.57
268.307	45241.94
268.536	45297.43
268.765	45351.95
268.993	45428.17
269.222	45503.5
269.451	45584.06
269.679	45665.17
269.908	45750.45
270.137	45820.37
270.365	45909.34
270.594	45995.59
270.822	46074.17
271.051	46178.55
271.279	46276.37
271.508	46369.3
271.736	46480.92
271.965	46580.48
272.193	46691.3
272.422	46801.83
272.65	46915.94
272.879	47026.01
273.107	47144.45
273.336	47266.75
273.564	47377.83
273.792	47495.37
274.021	47613.1
274.249	47715.81
274.477	47830.9
274.706	47947.55
274.934	48060.06
275.162	48197.99
275.391	48332.55
275.619	48458.35
275.847	48592.77
276.075	48717.21
276.304	48869.65
276.532	49019.19
276.76	49175.05
276.988	49321.86
277.216	49465.72
277.445	49606.21
277.673	49740.19
277.901	49874.41
278.129	50020.25
278.357	50170.32
278.585	50328.19
278.813	50470.39
279.041	50614.74
279.269	50761.88
279.497	50903.12
279.725	51059.19
279.954	51216.23
280.182	51374.66
280.41	51536.83
280.637	51690.55
280.865	51840.21
281.093	51984.97
281.321	52123.5
281.549	52269.37
281.777	52410.39
282.005	52555.03
282.233	52700.14
282.461	52835.14
282.689	52967.97
282.916	53095.72
283.144	53239.05
283.372	53379.65
283.6	53520.3
283.828	53655.86
284.055	53791.17
284.283	53930.66
284.511	54071.48
284.739	54191.14
284.966	54308.08
285.194	54435.65
285.422	54559.97
285.649	54673.74
285.877	54794.14
286.105	54911.32
286.332	55034.86
286.56	55147.61
286.788	55260.17
287.015	55381.28
287.243	55500.39
287.47	55642.75
287.698	55765.85
287.925	55893.92
288.153	56022.57
288.381	56130.19
288.608	56246.12
288.836	56361.46
289.063	56490.48
289.29	56608.68
289.518	56721.59
289.745	56833.01
289.973	56937.19
290.2	57048.26
290.428	57171.15
290.655	57276.65
290.882	57390.59
291.11	57506.32
291.337	57615.43
291.564	57710.92
291.792	57805.43
292.019	57903.74
292.246	58013.26
292.473	58126.72
292.701	58224.94
292.928	58307.72
293.155	58397.55
293.382	58489.01
293.61	58578.85
293.837	58667.26
294.064	58743.21
294.291	58830.37
294.518	58907.41
294.745	58976.55
294.972	59032.01
295.2	59102.77
295.427	59161.5
295.654	59224.01
295.881	59285.54
296.108	59348.61
296.335	59410.32
296.562	59474.45
296.789	59521.52
297.016	59564.35
297.243	59612.83
297.47	59661.25
297.697	59689.94
297.924	59729.48
298.151	59755.92
298.378	59783.46
298.604	59799.55
298.831	59818.06
299.058	59834.77
299.285	59858.94
299.512	59884.25
299.739	59886.63
299.966	59895.32
300.192	59899.05
300.419	59900.03
300.646	59903.77
300.873	59902.52
301.099	59889.14
301.326	59885.86
301.553	59883.72
301.78	59866.55
302.006	59843.26
302.233	59833.72
302.46	59822.92
302.686	59810.68
302.913	59776.34
303.14	59748.85
303.366	59717.05
303.593	59686.61
303.819	59638.45
304.046	59593.72
304.272	59549.75
304.499	59506.74
304.725	59465.17
304.952	59413.54
305.179	59374.54
305.405	59344.28
305.631	59307.05
305.858	59260.43
306.084	59224.85
306.311	59189.66
306.537	59150.39
306.764	59110.14
306.99	59068.25
307.216	59021.05
307.443	58976.3
307.669	58915.17
307.895	58865.5
308.122	58807.45
308.348	58752.74
308.574	58688.41
308.801	58630.59
309.027	58553.03
309.253	58479.46
309.479	58407.19
309.706	58336.86
309.932	58245.08
310.158	58179.17
310.384	58098.99
310.61	58023.97
310.837	57955.83
311.063	57873.86
311.289	57780.75
311.515	57712.74
311.741	57639.01
311.967	57565.99
312.193	57480.59
312.419	57414.66
312.645	57330.68
312.871	57237.72
313.097	57154.08
313.323	57069.85
313.549	56986.14
313.775	56918.85
314.001	56833.23
314.227	56742.74
314.453	56645.34
314.679	56555.88
314.905	56452.45
315.131	56339.37
315.357	56247.14
315.583	56141.23
315.809	56030.81
316.034	55939.17
316.26	55831.97
316.486	55735.68
316.712	55648.1
316.938	55564.14
317.163	55461.3
317.389	55362.41
317.615	55275.86
317.841	55176.46
318.066	55092.17
318.292	54999.88
318.518	54902.61
318.743	54820.77
318.969	54719.23
319.195	54628.35
319.42	54528.05
319.646	54443.23
319.872	54356.32
320.097	54262.34
320.323	54181.57
320.548	54081.03
320.774	53988.37
320.999	53891.23
321.225	53792.43
321.45	53696.14
321.676	53593.48
321.901	53501.19
322.127	53413.39
322.352	53331.14
322.578	53259.9
322.803	53174.14
323.029	53091.86
323.254	53006.75
323.479	52942.3
323.705	52851.77
323.93	52783.88
324.155	52708.32
324.381	52630.19
324.606	52551.21
324.831	52481.5
325.057	52388.55
325.282	52297.1
325.507	52211.39
325.732	52130.95
325.958	52034.17
326.183	51954.37
326.408	51857.9
326.633	51767.85
326.858	51676.1
327.084	51578.75
327.309	51482.61
327.534	51412.66
327.759	51342.54
327.984	51278.26
328.209	51201.41
328.434	51121.05
328.659	51054.05
328.884	50993.45
329.109	50925.48
329.334	50862.06
329.559	50796.3
329.784	50722.45
330.009	50638.81
330.234	50566.65
330.459	50479.3
330.684	50403.81
330.909	50328.66
331.134	50239.03
331.359	50145.32
331.584	50059.57
331.809	49972.63
332.034	49892.32
332.259	49813.3
332.483	49728.7
332.708	49632.63
332.933	49544.06
333.158	49461.97
333.383	49385.92
333.607	49316.79
333.832	49237.59
334.057	49160.9
334.282	49085.83
334.506	49006.74
334.731	48923.79
334.956	48844.66
335.18	48781.12
335.405	48712.46
335.63	48634.92
335.854	48548.25
336.079	48459.23
336.303	48382.1
336.528	48293.45
336.753	48200.68
336.977	48113.03
337.202	48030.9
337.426	47941.63
337.651	47848.17
337.875	47752.59
338.1	47662.77
338.324	47581.59
338.549	47488.23
338.773	47408.68
338.997	47318.66
339.222	47250.52
339.446	47179.23
339.671	47100.32
339.895	47030.95
340.119	46962.15
340.344	46892.48
340.568	46819.25
340.792	46742.94
341.017	46671.86
341.241	46578.12
341.465	46508.34
341.689	46412.77
341.914	46315.14
342.138	46228.05
342.362	46133.97
342.586	46032.23
342.811	45932.86
343.035	45824.57
343.259	45710.83
343.483	45608.9
343.707	45513.14
343.931	45416.55
344.155	45322.54
344.38	45235.54
344.604	45144.66
344.828	45052.61
345.052	44968.17
345.276	44884.01
345.5	44794.39
345.724	44718.85
345.948	44641.63
346.172	44568.19
346.396	44494.19
346.62	44419.14
346.844	44333.95
347.068	44235.17
347.292	44146.46
347.515	44036.79
347.739	43934.3
347.963	43844.61
348.187	43748.35
348.411	43628.79
348.635	43506.59
348.859	43376.46
349.082	43254.25
349.306	43143.59
349.53	43020.25
349.754	42902.55
349.977	42794.7
350.201	42690.03
350.425	42572.72
350.649	42462.26
350.872	42370.74
351.096	42271.81
351.32	42177.26
351.543	42075.68
351.767	41957.61
351.99	41869.92
352.214	41770.41
352.438	41662.65
352.661	41553.37
352.885	41455.15
353.108	41347.19
353.332	41227.74
353.555	41121.37
353.779	41000.32
354.002	40886.95
354.226	40786.46
354.449	40669.15
354.673	40555.23
354.896	40452.61
355.12	40342.68
355.343	40243.15
355.566	40140.08
355.79	40033.74
356.013	39936.34
356.237	39841.34
356.46	39735.81
356.683	39627.3
356.907	39520.03
357.13	39409.65
357.353	39296.03
357.576	39187.72
357.8	39069.43
358.023	38954.81
358.246	38844.75
358.469	38733.05
358.693	38621.03
358.916	38506.14
359.139	38399.06
359.362	38295.85
359.585	38192.23
359.808	38089.43
360.031	37985.05
360.255	37886.32
360.478	37787.35
360.701	37695.06
360.924	37601.39
361.147	37508.79
361.37	37424.23
361.593	37332.45
361.816	37246.37
362.039	37151.86
362.262	37062.7
362.485	36978.5
362.708	36885.9
362.931	36794.01
363.154	36705.57
363.377	36608.37
363.599	36511.01
363.822	36422.95
364.045	36337.45
364.268	36252.68
364.491	36189.81
364.714	36124.79
364.936	36059.94
365.159	36020.68
365.382	35992.32
365.605	35975.57
365.828	35959.65
366.05	35953.57
366.273	35948.1
366.496	35938.75
366.718	35921.63
366.941	35890.39
367.164	35850.85
367.386	35803.81
367.609	35742.17
367.832	35665.08
368.054	35566.35
368.277	35459.59
368.5	35339.77
368.722	35200.7
368.945	35053.81
369.167	34903.61
369.39	34755.17
369.612	34625.05
369.835	34497.61
370.057	34362.17
370.28	34247.99
370.502	34139.59
370.725	34044.28
370.947	33962.92
371.169	33878.23
371.392	33814.81
371.614	33756.54
371.837	33695.52
372.059	33630.19
372.281	33561.34
372.504	33510.97
372.726	33446.86
372.948	33387.43
373.171	33342.08
373.393	33314.95
373.615	33309.21
373.837	33318.68
374.06	33349.48
374.282	33403.25
374.504	33446.65
374.726	33475.45
374.948	33492.32
375.17	33502.05
375.393	33501.45
375.615	33498.15
375.837	33483.28
376.059	33486.77
376.281	33493.68
376.503	33498.03
376.725	33513.48
376.947	33540.65
377.169	33595.48
377.391	33652.3
377.613	33756.28
377.835	33892.94
378.057	34043.99
378.279	34197.25
378.501	34299.48
378.723	34337.57
378.945	34322.94
379.167	34279.7
379.389	34250.23
379.611	34214.46
379.833	34167.34
380.054	34063.63
380.276	33932.39
380.498	33765.03
380.72	33608.41
380.942	33505.54
381.163	33473.25
381.385	33504.41
381.607	33558.46
381.829	33567.25
382.05	33563.92
382.272	33535.92
382.494	33520.81
382.716	33516.37
382.937	33518.92
383.159	33519.54
383.381	33502.17
383.602	33453.3
383.824	33380.59
384.045	33279.68
384.267	33199.74
384.488	33125.39
384.71	33090.28
384.932	33073.37
385.153	33058.86
385.375	33068.15
385.596	33080.72
385.818	33112.48
386.039	33173.3
386.261	33265.92
386.482	33395.01
386.703	33533.03
386.925	33690.41
387.146	33857.5
387.368	34023.97
387.589	34184.66
387.81	34292.95
388.032	34313.59
388.253	34250.68
388.474	34128.5
388.696	33958.32
388.917	33779.14
389.138	33618.25
389.359	33452.68
389.581	33285.35
389.802	33117.23
390.023	32963.85
390.244	32849.7
390.465	32817.19
390.687	32884.41
390.908	33030.92
391.129	33253.21
391.35	33519.06
391.571	33825.05
391.792	34162.85
392.013	34473.23
392.234	34725.9
392.455	34895.39
392.677	34997.35
392.898	35067.06
393.119	35094.48
393.34	35105.68
393.561	35050.25
393.782	34937.83
394.003	34743.9
394.223	34485.26
394.444	34207.65
394.665	33980.25
394.886	33811.43
395.107	33723.45
395.328	33680.08
395.549	33659.92
395.77	33630.61
395.99	33627.57
396.211	33671.25
396.432	33771.39
396.653	33952.37
396.874	34213.12
397.094	34518.52
397.315	34867.94
397.536	35203.7
397.757	35475.12
397.977	35665.86
398.198	35763.23
398.419	35798.06
398.639	35768.43
398.86	35661.3
399.081	35454.99
399.301	35179.66
399.522	34863.59
399.742	34524.77
399.963	34188.06
400.184	33892.9
400.404	33612.57
400.625	33385.46
400.845	33182.1
401.066	33003.92
401.286	32865.94
401.507	32767.15
401.727	32693.23
401.948	32615.1
402.168	32530.17
402.388	32438.68
402.609	32362.08
402.829	32340.7
403.05	32361.54
403.27	32420.63
403.49	32491.34
403.711	32597.25
403.931	32747.99
404.151	32924.94
404.372	33112.45
404.592	33287.74
404.812	33425.21
405.032	33480.9
405.253	33451.3
405.473	33341.28
405.693	33168.17
405.913	32947.03
406.133	32684.97
406.353	32364.46
406.574	32003.9
406.794	31643.15
407.014	31328.5
407.234	31084.12
407.454	30940.59
407.674	30885.14
407.894	30870.1
408.114	30889.15
408.334	30915.46
408.554	30967.39
408.774	31055.85
408.994	31142.92
409.214	31191.39
409.434	31156.88
409.654	31052.26
409.874	30914.45
410.094	30776.45
410.314	30662.41
410.534	30561.66
410.754	30490.86
410.974	30439.05
411.193	30423.05
411.413	30476.9
411.633	30589.5
411.853	30743.61
412.073	30933.97
412.292	31116.59
412.512	31264.5
412.732	31373.63
412.952	31434.92
413.171	31447.75
413.391	31403.52
413.611	31304.92
413.831	31150.99
414.05	30971.88
414.27	30778.83
414.489	30580.28
414.709	30368.81
414.929	30178.35
415.148	30018.35
415.368	29917.66
415.587	29849.37
415.807	29773.66
416.026	29691.35
416.246	29610.63
416.465	29534.83
416.685	29457.97
416.904	29383.86
417.124	29322.95
417.343	29257.35
417.563	29204.05
417.782	29142.45
418.002	29103.14
418.221	29101.37
418.44	29123.74
418.66	29138.68
418.879	29162.06
419.098	29225.46
419.318	29351.85
419.537	29533.05
419.756	29766.63
419.976	30049.1
420.195	30399.92
420.414	30805.68
420.633	31255.14
420.853	31686.39
421.072	32083.97
421.291	32405.14
421.51	32657.72
421.729	32827.34
421.948	32953.37
422.168	33059.48
422.387	33112.61
422.606	33051.46
422.825	32841.54
423.044	32512.03
423.263	32130.7
423.482	31792.72
423.701	31529.43
423.92	31312.57
424.139	31111.41
424.358	30871.77
424.577	30541.39
424.796	30146.1
425.015	29747.63
425.234	29420.41
425.453	29158.85
425.672	28988.23
425.891	28883.37
426.11	28863.66
426.328	28953.79
426.547	29054.7
426.766	29124.94
426.985	29160.23
427.204	29158.23
427.422	29214.92
427.641	29300.85
427.86	29425.68
428.079	29558.05
428.297	29709.83
428.516	29898.14
428.735	30057.77
428.954	30265.7
429.172	30522.15
429.391	30839.94
429.61	31217.65
429.828	31522.54
430.047	31717.85
430.265	31787.66
430.484	31705.14
430.703	31435.86
430.921	30966.35
431.14	30375.3
431.358	29737.19
431.577	29122.5
431.795	28561.03
432.014	28064.65
432.232	27745.75
432.451	27711.35
432.669	27957.68
432.887	28350.7
433.106	28728.59
433.324	28963.65
433.543	29039.65
433.761	29092.68
433.979	29174.08
434.198	29274.79
434.416	29333.28
434.634	29251.74
434.853	28954.37
435.071	28503.55
435.289	28061.1
435.507	27773.1
435.726	27689.57
435.944	27752.79
436.162	27767.57
436.38	27710.05
436.598	27624.26
436.817	27574.14
437.035	27577.19
437.253	27625.61
437.471	27659.37
437.689	27648.12
437.907	27578.83
438.125	27482.26
438.343	27415.52
438.561	27392.19
438.78	27378.61
438.998	27333.35
439.216	27260.57
439.434	27182.05
439.652	27166.05
439.869	27263.21
440.087	27536.23
440.305	27944.65
440.523	28397.19
440.741	28825.14
440.959	29182.55
441.177	29474.08
441.395	29730.12
441.613	29957.5
441.831	30161.39
442.048	30315.94
442.266	30386.01
442.484	30318.81
442.702	30126.79
442.919	29904.95
443.137	29698.66
443.355	29566.3
443.573	29513.15
443.79	29519.94
444.008	29542.81
444.226	29558.01
444.443	29508.39
444.661	29385.15
444.879	29219.25
445.096	29081.12
445.314	28994.37
445.532	28933.08
445.749	28863.28
445.967	28760.14
446.184	28618.81
446.402	28473.5
446.619	28329.12
446.837	28189.17
447.054	28048.66
447.272	27908.45
447.489	27752.01
447.707	27577.74
447.924	27422.88
448.141	27299.61
448.359	27211.9
448.576	27157.43
448.794	27102.74
449.011	27041.95
449.228	26990.52
449.446	26940.45
449.663	26870.23
449.88	26763.08
450.098	26612.52
450.315	26421.01
450.532	26242.1
450.749	26082.59
450.967	25937.1
451.184	25801.25
451.401	25656.55
451.618	25493.5
451.835	25324.88
452.052	25158.85
452.27	25001.39
452.487	24863.23
452.704	24742.7
452.921	24605.81
453.138	24438.86
453.355	24252.95
453.572	24084.86
453.789	23982.06
454.006	23955.12
454.223	23993.5
454.44	24056.39
454.657	24097.21
454.874	24094.46
455.091	24064.79
455.308	24024.32
455.525	24016.99
455.742	24038.45
455.959	24087.5
456.176	24115.41
456.393	24146.39
456.609	24162.61
456.826	24212.61
457.043	24333.5
457.26	24516.54
457.477	24733.48
457.693	24944.34
457.91	25134.06
458.127	25289.45
458.344	25393.55
458.56	25469.17
458.777	25469.83
458.994	25399.05
459.21	25236.35
459.427	24993.32
459.644	24737.55
459.86	24490.12
460.077	24278.23
460.294	24064.28
460.51	23815.41
460.727	23510.77
460.943	23137.74
461.16	22753.88
461.376	22425.59
461.593	22183.26
461.809	22039.88
462.026	21939.57
462.242	21870.01
462.459	21847.88
462.675	21884.03
462.892	21993.65
463.108	22197.59
463.324	22483.23
463.541	22839.3
463.757	23208.46
463.974	23555.28
464.19	23841.61
464.406	24099.77
464.623	24306.99
464.839	24434.06
465.055	24478.48
465.271	24406.95
465.488	24201.01
465.704	23916.35
465.92	23553.97
466.136	23164.43
466.353	22771.54
466.569	22392.26
466.785	22010.75
467.001	21654.77
467.217	21308.35
467.433	20963.88
467.649	20670.5
467.865	20429.3
468.082	20213.41
468.298	20002.61
468.514	19771.25
468.73	19513.75
468.946	19240.08
469.162	18943.37
469.378	18630.66
469.594	18321.17
469.81	18056.32
470.026	17826.01
470.242	17654.99
470.457	17532.03
470.673	17457.77
470.889	17416.81
471.105	17413.19
471.321	17455.12
471.537	17535.66
471.753	17668.59
471.968	17846.79
472.184	18041.12
472.4	18234.55
472.616	18410.17
472.832	18547.74
473.047	18634.52
473.263	18708.32
473.479	18770.41
473.694	18838.43
473.91	18940.95
474.126	19031.5
474.341	19096.32
474.557	19112.46
474.773	19087.37
474.988	19057.17
475.204	19048.37
475.42	19082.99
475.635	19111.48
475.851	19115.48
476.066	19047.61
476.282	18912.75
476.497	18764.72
476.713	18646.66
476.928	18610.68
477.144	18635.92
477.359	18661.7
477.575	18661.74
477.79	18622.7
478.005	18582.94
478.221	18571.43
478.436	18621.83
478.651	18712.63
478.867	18822.3
479.082	18911.05
479.297	18950.7
479.513	18953.72
479.728	18952.92
479.943	18971.39
480.159	19022.34
480.374	19115.68
480.589	19235.86
480.804	19331.32
481.019	19373.28
481.235	19340.59
481.45	19238.65
481.665	19103.01
481.88	18993.41
482.095	18919.95
482.31	18891.68
482.525	18884.15
482.741	18878.59
482.956	18858.7
483.171	18896.17
483.386	19014.39
483.601	19193.55
483.816	19437.39
484.031	19836.65
484.246	21109.79
484.461	23746.46
484.676	27536.46
484.891	31403.81
485.105	35240.66
485.32	38376.74
485.535	40239.81
485.75	40898.15
485.965	40949.54
486.18	40879.5
486.395	40655.23
486.609	39497.86
486.824	36879.74
487.039	33002.86
487.254	28968.41
487.469	24915.7
487.683	21548.85
487.898	19400.94
488.113	18417.14
488.327	18028.94
488.542	17736.59
488.757	17478.21
488.972	17263.77
489.186	17117.05
489.401	17031.03
489.615	16997.5
489.83	16969.32
490.045	16930.34
490.259	16868.37
490.474	16754.81
490.688	16609.46
490.903	16450.12
491.117	16281.21
491.332	16133.77
491.546	16012.57
491.761	15919.3
491.975	15832.35
492.19	15763.46
492.404	15696.19
492.618	15638.68
492.833	15598.97
493.047	15563.83
493.262	15538.48
493.476	15500.1
493.69	15432.14
493.905	15326.45
494.119	15175.37
494.333	15003.54
494.547	14845.08
494.762	14748.9
494.976	14729.97
495.19	14788.14
495.404	14874.39
495.619	14949.17
495.833	14977.12
496.047	14939.35
496.261	14866.97
496.475	14794.99
496.689	14740.57
496.903	14684.54
497.117	14603.99
497.332	14493.99
497.546	14349.86
497.76	14206.45
497.974	14100.34
498.188	14037.85
498.402	14061.34
498.616	14136.9
498.83	14218.59
499.044	14271.25
499.258	14269.55
499.472	14221.39
499.685	14143.03
499.899	14071.94
500.113	14018.35
500.327	13957.52
500.541	13916.46
500.755	13869.77
500.969	13822.85
501.183	13805.54
501.396	13817.43
501.61	13857.39
501.824	13909.06
502.038	13956.55
502.251	13962.43
502.465	13923.45
502.679	13854.35
502.892	13742.75
503.106	13601.59
503.32	13456.05
503.533	13298.61
503.747	13158.17
503.961	13040.21
504.174	12932.34
504.388	12823.52
504.602	12706.57
504.815	12600.08
505.029	12521.79
505.242	12489.54
505.456	12489.39
505.669	12482.26
505.883	12444.3
506.096	12354.57
506.31	12246.06
506.523	12134.34
506.736	12043.68
506.95	11987.86
507.163	11939.46
507.377	11885.25
507.59	11810.37
507.803	11716.94
508.017	11624.65
508.23	11570.01
508.443	11555.95
508.657	11546.83
508.87	11540.46
509.083	11516.94
509.296	11470.28
509.51	11414.95
509.723	11357.15
509.936	11319.12
510.149	11308.08
510.363	11323.99
510.576	11332.28
510.789	11322.03
511.002	11300.54
511.215	11257.06
511.428	11205.12
511.641	11160.75
511.854	11120.45
512.067	11073.19
512.28	11020.28
512.493	10957.46
512.707	10878.9
512.92	10820.25
513.132	10776.5
513.345	10740.68
513.558	10706.65
513.771	10665.1
513.984	10594.54
514.197	10513.63
514.41	10450.12
514.623	10400.23
514.836	10365.74
515.049	10345.25
515.262	10312.37
515.474	10293.43
515.687	10273.17
515.9	10252.19
516.113	10226.83
516.325	10212.66
516.538	10191.83
516.751	10154.52
516.964	10094.94
517.176	10030.19
517.389	9971.79
517.602	9937.1
517.814	9913.94
518.027	9909.12
518.24	9922.88
518.452	9931.17
518.665	9929.15
518.877	9911.32
519.09	9863.72
519.303	9804.7
519.515	9738.72
519.728	9671.26
519.94	9609.94
520.153	9544.55
520.365	9464.63
520.578	9361.1
520.79	9255.92
521.002	9157.52
521.215	9081.94
521.427	9043.3
521.64	9029.19
521.852	9024.55
522.064	9015.03
522.277	8982.54
522.489	8941.05
522.701	8907.99
522.914	8898.08
523.126	8904.61
523.338	8921.66
523.551	8935.3
523.763	8936.19
523.975	8914.9
524.187	8893.35
524.399	8875.5
524.612	8861.5
524.824	8846.95
525.036	8828.28
525.248	8802.59
525.46	8788.21
525.672	8779.05
525.884	8775.43
526.096	8783.81
526.308	8795.79
526.521	8790.17
526.733	8769.59
526.945	8745.81
527.157	8731.06
527.369	8744.06
527.581	8783.61
527.793	8838.68
528.004	8886.63
528.216	8919.66
528.428	8936.37
528.64	8939.45
528.852	8946.94
529.064	8960.52
529.276	8966.15
529.488	8950.52
529.699	8897.34
529.911	8809.19
530.123	8702.12
530.335	8602.37
530.547	8527.99
530.758	8467.19
530.97	8431.94
531.182	8407.54
531.393	8398.37
531.605	8417.45
531.817	8473.86
532.029	8578.72
532.24	8714.39
532.452	8862.52
532.663	8997.72
532.875	9122.06
533.087	9246.48
533.298	9367.26
533.51	9481.59
533.721	9586.63
533.933	9675.92
534.144	9730.86
534.356	9727.3
534.567	9689.25
534.779	9612.12
534.99	9519.77
535.202	9408.12
535.413	9274.12
535.624	9130.32
535.836	8994.08
536.047	8863.54
536.259	8751.75
536.47	8667.41
536.681	8630.66
536.893	8624.86
537.104	8658.26
537.315	8716.45
537.526	8800.65
537.738	8909.37
537.949	9025.35
538.16	9138.92
538.371	9234.83
538.582	9297.95
538.794	9312.59
539.005	9279.9
539.216	9233.85
539.427	9176.06
539.638	9130.26
539.849	9099.95
540.06	9073.72
540.272	9053.05
540.483	9034.23
540.694	9030.59
540.905	9048.97
541.116	9102.19
541.327	9172.26
541.538	9222.23
541.749	9253.94
541.96	9271.85
542.17	9271.9
542.381	9272.77
542.592	9290.94
542.803	9321.05
543.014	9354.03
543.225	9368.08
543.436	9375.61
543.647	9377.88
543.857	9384.05
544.068	9378.35
544.279	9353.17
544.49	9293.59
544.701	9205.85
544.911	9091.08
545.122	8956.52
545.333	8828.79
545.543	8717.83
545.754	8619.83
545.965	8554.37
546.175	8535.7
546.386	8588.46
546.597	8698.06
546.807	8861.59
547.018	9040.79
547.229	9216.45
547.439	9358.28
547.65	9446.01
547.86	9474.7
548.071	9457.37
548.281	9399.26
548.492	9302.99
548.702	9165.7
548.913	8999.85
549.123	8805.28
549.333	8614.72
549.544	8424.97
549.754	8251.08
549.965	8104.81
550.175	8005.66
550.385	7969.17
550.596	7992.65
550.806	8068.5
551.016	8169.37
551.227	8259.39
551.437	8330.72
551.647	8378.61
551.857	8421.01
552.068	8483.06
552.278	8564.21
552.488	8654.37
552.698	8708.57
552.908	8696.94
553.119	8604.08
553.329	8454.94
553.539	8307.97
553.749	8206.03
553.959	8160.19
554.169	8170.7
554.379	8199.5
554.589	8226.74
554.799	8252.25
555.009	8262.88
555.219	8264.95
555.429	8276.74
555.639	8289.05
555.849	8295.05
556.059	8287.59
556.269	8259.35
556.479	8201.54
556.689	8137.45
556.899	8054.55
557.109	7946.41
557.319	7827.95
557.528	7721.15
557.738	7629.86
557.948	7572.65
558.158	7533.03
558.368	7508.83
558.577	7515.46
558.787	7555.55
558.997	7612.01
559.207	7719.99
559.416	7864.23
559.626	8041.86
559.836	8234.57
560.045	8420.37
560.255	8576.21
560.465	8706.41
560.674	8792.3
560.884	8817.88
561.093	8791.26
561.303	8736.77
561.512	8648.45
561.722	8557.88
561.932	8472.75
562.141	8400.35
562.351	8351.41
562.56	8338.97
562.769	8361.43
562.979	8417.28
563.188	8498.7
563.398	8586.79
563.607	8686.9
563.817	8780.61
564.026	8855.86
564.235	8911.86
564.445	8946.61
564.654	8972.79
564.863	8984.57
565.073	9001.63
565.282	9033.7
565.491	9094.97
565.7	9241.39
565.91	9452.28
566.119	9714.1
566.328	10021.77
566.537	10335.85
566.746	10660.61
566.956	11006.25
567.165	11402.74
567.374	11846.79
567.583	12324.08
567.792	12859.7
568.001	13453.54
568.21	14109.46
568.419	14884.03
568.628	15713.55
568.837	16531.1
569.046	17298.86
569.255	18004.95
569.464	18691.1
569.673	19410.74
569.882	20163.23
570.091	20898.43
570.3	21557.17
570.509	22125.99
570.718	22523.46
570.927	22752.59
571.135	22806.59
571.344	22707.9
571.553	22630.75
571.762	22635.88
571.971	22789.5
572.18	23101.81
572.388	23465.19
572.597	23867.35
572.806	24275.59
573.014	24692.61
573.223	25197.25
573.432	25865.85
573.641	26686.01
573.849	27452.21
574.058	28009.88
574.266	28196.72
574.475	28011.03
574.684	27699.79
574.892	27377.83
575.101	27123.97
575.309	27079.83
575.518	27105.83
575.726	27179.94
575.935	27445.12
576.143	27978.97
576.352	28889.32
576.56	30175.9
576.769	31578.99
576.977	32754.79
577.186	33503.7
577.394	33761.12
577.602	33554.74
577.811	33146.25
578.019	32748.65
578.228	32331.32
578.436	31882.12
578.644	31316.86
578.852	30560.1
579.061	29802.92
579.269	29183.85
579.477	28792.75
579.685	28950.92
579.894	29917.41
580.102	31606.9
580.31	33790.01
580.518	36034.99
580.726	37871.74
580.935	39160.72
581.143	39885.65
581.351	40123.59
581.559	40004.43
581.767	39614.59
581.975	38778.25
582.183	37209.17
582.391	34999.55
582.599	32366.83
582.807	29742.72
583.015	27569.85
583.223	25971.17
583.431	25065.66
583.639	24815.1
583.847	25142.88
584.055	25909.79
584.263	26885.94
584.471	27883.26
584.678	28680.79
584.886	29108.28
585.094	29112.85
585.302	28788.37
585.51	28339.17
585.718	27846.59
585.925	27391.34
586.133	27012.61
586.341	26614.23
586.549	26221.88
586.756	25857.48
586.964	25583.25
587.172	25482.95
587.379	25499.72
587.587	25501.79
587.795	25244.23
588.002	24674.01
588.21	23843.74
588.417	22814.43
588.625	21779.77
588.833	20796.59
589.04	19895.57
589.248	19079.01
589.455	18294.43
589.663	17566.55
589.87	16940.28
590.078	16507.25
590.285	16262.12
590.492	16088.83
590.7	15881.63
590.907	15685.75
591.115	15703.26
591.322	16105.94
591.529	16875.03
591.737	17907.5
591.944	18968.59
592.151	19906.88
592.359	20679.43
592.566	21255.39
592.773	21639.86
592.981	21899.5
593.188	22111.48
593.395	22219.95
593.602	22189.88
593.809	22022.97
594.017	21662.7
594.224	21237.68
594.431	20799.94
594.638	20351.54
594.845	19941.3
595.052	19581.83
595.259	19276.35
595.466	18958.59
595.673	18567.74
595.88	18040.05
596.088	17439.74
596.295	16869.7
596.502	16368.01
596.709	15966.77
596.915	15659.85
597.122	15535.68
597.329	15750.14
597.536	16288.15
597.743	16979.19
597.95	17610.88
598.157	18029.72
598.364	18214.63
598.571	18321.28
598.777	18500.1
598.984	18783.34
599.191	19132.86
599.398	19429.46
599.605	19532.06
599.811	19419.81
600.018	19138.95
600.225	18834.08
600.431	18622.66
600.638	18480.28
600.845	18343.45
601.052	18185.1
601.258	18018.01
601.465	17922.28
601.671	17942.37
601.878	18058.9
602.085	18224.77
602.291	18406.34
602.498	18518.75
602.704	18506.77
602.911	18399.55
603.117	18197.57
603.324	17885.12
603.53	17512.39
603.737	17116.59
603.943	16664.39
604.15	16196.9
604.356	15760.61
604.562	15335.41
604.769	14937.28
604.975	14622.65
605.181	14373.21
605.388	14191.15
605.594	14118.52
605.8	14115.57
606.007	14072.88
606.213	13952.54
606.419	13685.75
606.625	13259.03
606.832	12786.03
607.038	12362.5
607.244	12015.72
607.45	11775.7
607.656	11553.57
607.863	11243.83
608.069	10861.55
608.275	10515.81
608.481	10303.97
608.687	10220.75
608.893	10208.83
609.099	10183.99
609.305	10102.08
609.511	9980.26
609.717	9828.06
609.923	9734.12
610.129	9698.94
610.335	9687.79
610.541	9625.83
610.747	9377.61
610.953	9004.61
611.159	8625.08
611.365	8319.63
611.571	8133.63
611.776	7999.74
611.982	7848.15
612.188	7664.72
612.394	7491.15
612.6	7324.14
612.806	7172.1
613.011	7076.39
613.217	6992.83
613.423	6883.37
613.628	6751.66
613.834	6605.21
614.04	6482.95
614.246	6405.23
614.451	6299.1
614.657	6129.35
614.862	5915.61
615.068	5673.81
615.274	5440.94
615.479	5254.21
615.685	5098.55
615.89	4950.45
616.096	4795.32
616.301	4624.86
616.507	4437.68
616.712	4278.66
616.918	4156.32
617.123	4048.7
617.329	3942.7
617.534	3829.5
617.74	3704.12
617.945	3569.52
618.15	3432.61
618.356	3252.3
618.561	2946.88
618.766	2589.66
618.972	2228.17
619.177	1888.23
619.382	1582.75
619.588	1310.85
619.793	1158.08
619.998	974.19
620.203	751.35
620.408	470.81
620.614	178.43
