Data from bluedw1d_MAYP1115451__1__11-10-05-356.txt Node

Date: Thu May 23 11:10:05 MDT 2024
User: Modes Lab
Spectrometer: MAYP111545
Trigger mode: 0
Integration Time (sec): 7.200000E-3
Scans to average: 5
Electric dark correction enabled: true
Nonlinearity correction enabled: false
Boxcar width: 5
XAxis mode: Wavelengths
Number of Pixels in Spectrum: 2068
>>>>>Begin Spectral Data<<<<<
165.214	5330.97
165.449	4587.69
165.683	4039.83
165.918	3616.1
166.152	3276.49
166.387	2998.09
166.621	104.4
166.856	139.8
167.09	155.65
167.325	175.87
167.559	191.05
167.794	204.56
168.028	211.6
168.263	212.25
168.497	210.43
168.732	210.16
168.966	210.63
169.2	210.8
169.435	211.14
169.669	211.23
169.903	211.78
170.138	212.34
170.372	212.45
170.606	213.23
170.841	213.72
171.075	214.71
171.309	214.16
171.544	213.92
171.778	214.51
172.012	215.14
172.246	215.09
172.48	215.87
172.715	216.42
172.949	217.11
173.183	217.11
173.417	217.89
173.651	217.03
173.885	218.51
174.119	218.6
174.354	218.47
174.588	219.11
174.822	220.4
175.056	220.36
175.29	220.4
175.524	219.69
175.758	220.34
175.992	220
176.226	220.51
176.46	220.6
176.694	221.52
176.928	222.07
177.162	223.36
177.396	222.96
177.63	223.63
177.864	224.54
178.097	226.29
178.331	226.92
178.565	227.85
178.799	229.27
179.033	230.2
179.267	230.25
179.5	231.49
179.734	231.22
179.968	233.22
180.202	234.45
180.436	235.85
180.669	238.45
180.903	240.29
181.137	241.56
181.371	244.25
181.604	246.58
181.838	250.29
182.072	253.56
182.305	257.62
182.539	261.07
182.772	264.74
183.006	269.63
183.24	273.36
183.473	282.31
183.707	290.51
183.94	297.91
184.174	306.98
184.408	316.12
184.641	326.54
184.875	336.29
185.108	346.92
185.342	359.23
185.575	372
185.808	387.98
186.042	402.4
186.275	419.62
186.509	438.27
186.742	454.91
186.976	472.25
187.209	489.8
187.442	510.2
187.676	533.27
187.909	557.31
188.142	582.29
188.376	605.83
188.609	627.92
188.842	647.8
189.076	669.63
189.309	693.25
189.542	719.69
189.775	750.56
190.009	781.23
190.242	811.34
190.475	840.31
190.708	866.05
190.941	892.78
191.174	920.67
191.408	953.71
191.641	986.49
191.874	1022.62
192.107	1058.91
192.34	1091.43
192.573	1126.07
192.806	1160.43
193.039	1194.67
193.272	1231.56
193.505	1269.8
193.738	1309.54
193.971	1349.34
194.204	1390.45
194.437	1429.52
194.67	1470.45
194.903	1511.34
195.136	1554.56
195.369	1599.16
195.602	1644.25
195.835	1693.82
196.068	1743.96
196.301	1797.72
196.533	1851.42
196.766	1903.07
196.999	1962.25
197.232	2018.83
197.465	2077.27
197.698	2136.03
197.93	2196.67
198.163	2262.94
198.396	2327.72
198.629	2391.96
198.861	2454.07
199.094	2523.65
199.327	2594.2
199.559	2660.56
199.792	2728.09
200.025	2801.22
200.257	2875.8
200.49	2950.74
200.723	3024.29
200.955	3100.54
201.188	3177.6
201.42	3259.02
201.653	3336.69
201.886	3418.62
202.118	3502.89
202.351	3590.63
202.583	3679.91
202.816	3764.54
203.048	3853.27
203.281	3940.74
203.513	4035.92
203.745	4132.11
203.978	4229.51
204.21	4327.16
204.443	4428.2
204.675	4531.03
204.907	4632.47
205.14	4733.6
205.372	4843.16
205.605	4953.8
205.837	5071.22
206.069	5183.98
206.302	5302.45
206.534	5418.96
206.766	5538.98
206.998	5661.52
207.231	5786.96
207.463	5916.82
207.695	6048.98
207.927	6180.49
208.159	6315.83
208.392	6452.71
208.624	6590.54
208.856	6727.25
209.088	6875.8
209.32	7024.49
209.552	7176.12
209.784	7326.78
210.017	7479.49
210.249	7640.78
210.481	7804.43
210.713	7966.22
210.945	8130.38
211.177	8293.87
211.409	8465.62
211.641	8638.34
211.873	8819.25
212.105	9005.34
212.337	9193.51
212.569	9389.45
212.801	9580.63
213.033	9781.36
213.264	9985.62
213.496	10194.25
213.728	10411.2
213.96	10627.76
214.192	10850.52
214.424	11070.43
214.656	11291.82
214.887	11525.76
215.119	11762.49
215.351	11997.05
215.583	12233.82
215.815	12476.49
216.046	12727.31
216.278	12982.54
216.51	13239.11
216.741	13493.96
216.973	13755.23
217.205	14021.45
217.436	14281.05
217.668	14540.22
217.9	14813.4
218.131	15081.62
218.363	15364.94
218.595	15644
218.826	15923.83
219.058	16207.12
219.289	16491.67
219.521	16784.03
219.752	17076.67
219.984	17372.34
220.215	17678.52
220.447	17986.12
220.678	18296.72
220.91	18595.89
221.141	18905.49
221.373	19220.27
221.604	19546.34
221.836	19873.09
222.067	20200.25
222.298	20532.42
222.53	20869.22
222.761	21205.09
222.993	21541.74
223.224	21882.07
223.455	22232.32
223.686	22578.18
223.918	22931.09
224.149	23286.29
224.38	23642.4
224.612	24002.29
224.843	24362.87
225.074	24726.87
225.305	25082.71
225.536	25435.91
225.768	25791.11
225.999	26147.96
226.23	26511.71
226.461	26864.05
226.692	27214.82
226.923	27558.07
227.155	27906.69
227.386	28247.78
227.617	28592.91
227.848	28947.47
228.079	29313.18
228.31	29677.96
228.541	30040.32
228.772	30390.83
229.003	30754.52
229.234	31105.69
229.465	31470.07
229.696	31818.38
229.927	32170.74
230.158	32511.83
230.389	32851.8
230.62	33184.8
230.85	33514.49
231.081	33865.92
231.312	34203.94
231.543	34532.11
231.774	34873.85
232.005	35209.67
232.236	35539.11
232.466	35861.85
232.697	36187.05
232.928	36503.8
233.159	36816.92
233.389	37138.03
233.62	37413.23
233.851	37692.89
234.082	37975.12
234.312	38250.16
234.543	38507.87
234.774	38765.65
235.004	39013.09
235.235	39254.03
235.466	39486.65
235.696	39714.63
235.927	39920.52
236.157	40135.72
236.388	40357.74
236.618	40563.82
236.849	40760.98
237.08	40965.16
237.31	41159.85
237.541	41343.27
237.771	41526.87
238.002	41707.43
238.232	41887.92
238.463	42069.85
238.693	42245.87
238.923	42413.11
239.154	42564.54
239.384	42710.02
239.615	42842.92
239.845	42975.02
240.075	43132.82
240.306	43273.2
240.536	43416.34
240.766	43540.05
240.997	43647.92
241.227	43777.69
241.457	43882.07
241.687	44005.45
241.918	44126.02
242.148	44245.6
242.378	44369.74
242.608	44478
242.839	44581.8
243.069	44689.91
243.299	44793.94
243.529	44903.29
243.759	44988.85
243.989	45099.98
244.22	45208.38
244.45	45306.89
244.68	45405.32
244.91	45503.63
245.14	45589.11
245.37	45699.23
245.6	45789.03
245.83	45884.91
246.06	45995.74
246.29	46077.72
246.52	46157.94
246.75	46240.45
246.98	46332.8
247.21	46427.2
247.44	46525.8
247.67	46612.18
247.9	46685.8
248.13	46758.36
248.359	46829.05
248.589	46909.74
248.819	47008.09
249.049	47105.22
249.279	47192.31
249.509	47262.14
249.738	47340.54
249.968	47388.94
250.198	47462.6
250.428	47535.65
250.657	47625.47
250.887	47716.12
251.117	47772.32
251.347	47831.65
251.576	47892.4
251.806	47952.07
252.036	48013.56
252.265	48079.11
252.495	48153.83
252.725	48225.87
252.954	48297.36
253.184	48341.92
253.413	48386.98
253.643	48441.89
253.873	48482.96
254.102	48520.82
254.332	48561.52
254.561	48610.11
254.791	48649.11
255.02	48701.43
255.25	48750.22
255.479	48790.22
255.708	48832.16
255.938	48867.85
256.167	48912.89
256.397	48964.23
256.626	48988.65
256.856	49015.23
257.085	49036.78
257.314	49061.85
257.544	49055.27
257.773	49051.03
258.002	49054.91
258.232	49075.14
258.461	49107.07
258.69	49121.56
258.919	49139.2
259.149	49165.25
259.378	49181.82
259.607	49217.32
259.836	49247.67
260.065	49297.29
260.295	49339.34
260.524	49366.11
260.753	49396.89
260.982	49409.85
261.211	49436.14
261.44	49461.87
261.669	49502.25
261.899	49542.16
262.128	49566.71
262.357	49582.8
262.586	49601.83
262.815	49612.07
263.044	49626
263.273	49632.47
263.502	49655.76
263.731	49662.29
263.96	49668.47
264.189	49667.89
264.418	49684.05
264.646	49684.22
264.875	49694.51
265.104	49701.11
265.333	49729.32
265.562	49762.25
265.791	49799.16
266.02	49816.18
266.249	49850.22
266.477	49884.82
266.706	49924.03
266.935	49938.05
267.164	49990.36
267.393	50024.91
267.621	50074.6
267.85	50116.67
268.079	50160.32
268.307	50184.12
268.536	50229.45
268.765	50263.05
268.993	50301.07
269.222	50347.52
269.451	50400.02
269.679	50441.83
269.908	50497.05
270.137	50540.76
270.365	50589.23
270.594	50640.92
270.822	50714.76
271.051	50772.16
271.279	50846.02
271.508	50939.52
271.736	51021.18
271.965	51110.27
272.193	51183.54
272.422	51261.52
272.65	51355.6
272.879	51456.96
273.107	51543.29
273.336	51639.05
273.564	51730.96
273.792	51825.18
274.021	51902.52
274.249	51979.22
274.477	52083.34
274.706	52188.91
274.934	52306.8
275.162	52406.16
275.391	52503.49
275.619	52619.56
275.847	52723.87
276.075	52837.83
276.304	52962.07
276.532	53088.29
276.76	53218.92
276.988	53332.03
277.216	53448.74
277.445	53559.02
277.673	53681.54
277.901	53790.85
278.129	53906.14
278.357	54019.12
278.585	54143.43
278.813	54260.27
279.041	54376.96
279.269	54498.83
279.497	54621.52
279.725	54753.42
279.954	54872.74
280.182	55006.12
280.41	55150.22
280.637	55274.36
280.865	55407.58
281.093	55522.22
281.321	55630.63
281.549	55744.8
281.777	55855
282.005	55969.22
282.233	56074.71
282.461	56189.54
282.689	56292.12
282.916	56403.03
283.144	56535.27
283.372	56658.58
283.6	56776.11
283.828	56892.8
284.055	57009.14
284.283	57129.52
284.511	57234.29
284.739	57338.09
284.966	57443.07
285.194	57553.22
285.422	57642.51
285.649	57728.94
285.877	57810.02
286.105	57908.96
286.332	57998.49
286.56	58082.54
286.788	58170.67
287.015	58280.4
287.243	58385.83
287.47	58482.03
287.698	58578.29
287.925	58687.38
288.153	58784.71
288.381	58889.09
288.608	58991.25
288.836	59092.58
289.063	59201.43
289.29	59302.25
289.518	59382.23
289.745	59474.62
289.973	59576.36
290.2	59659.58
290.428	59746.67
290.655	59840.23
290.882	59912.74
291.11	60001.23
291.337	60095.34
291.564	60184.69
291.792	60272.56
292.019	60349.92
292.246	60424.45
292.473	60490.91
292.701	60561.38
292.928	60612.22
293.155	60674.54
293.382	60760.98
293.61	60838.65
293.837	60901.47
294.064	60958.56
294.291	61007.56
294.518	61065.43
294.745	61118.49
294.972	61167.54
295.2	61213.76
295.427	61260.45
295.654	61287.09
295.881	61303.56
296.108	61308.43
296.335	61321.45
296.562	61328.14
296.789	61339.12
297.016	61344.74
297.243	61346.89
297.47	61345.91
297.697	61345.91
297.924	61347.05
298.151	61347.05
298.378	61347.05
298.604	61347.05
298.831	61347.05
299.058	61347.05
299.285	61347.05
299.512	61347.05
299.739	61347.05
299.966	61348.03
300.192	61348.03
300.419	61347.74
300.646	61345.18
300.873	61343.78
301.099	61342.94
301.326	61337.52
301.553	61332.51
301.78	61325.83
302.006	61318.82
302.233	61301.87
302.46	61287.8
302.686	61269.45
302.913	61246.69
303.14	61223.34
303.366	61191.56
303.593	61138.23
303.819	61094.23
304.046	61051.85
304.272	61002.69
304.499	60950.91
304.725	60903.74
304.952	60857.31
305.179	60814.23
305.405	60763.18
305.631	60712.43
305.858	60654.85
306.084	60616.76
306.311	60574.4
306.537	60523.87
306.764	60466.11
306.99	60408.38
307.216	60359.36
307.443	60310.56
307.669	60238.58
307.895	60180.94
308.122	60119.78
308.348	60068.91
308.574	59999.56
308.801	59925.8
309.027	59850.58
309.253	59791.76
309.479	59715.16
309.706	59638.38
309.932	59551.71
310.158	59477.63
310.384	59401.87
310.61	59329.42
310.837	59251.11
311.063	59200.2
311.289	59122.32
311.515	59052.51
311.741	58973.76
311.967	58911.18
312.193	58842.27
312.419	58769.83
312.645	58711.78
312.871	58641.54
313.097	58572.42
313.323	58492.22
313.549	58397.49
313.775	58334.78
314.001	58263.18
314.227	58182.38
314.453	58105.09
314.679	58017.96
314.905	57937.12
315.131	57856.16
315.357	57769.91
315.583	57674.54
315.809	57592.58
316.034	57515.63
316.26	57433.65
316.486	57349.94
316.712	57270.07
316.938	57194.05
317.163	57112.69
317.389	57022.91
317.615	56936.74
317.841	56858.22
318.066	56782.22
318.292	56714.98
318.518	56642.51
318.743	56578.31
318.969	56515.89
319.195	56449.22
319.42	56373.14
319.646	56321.91
319.872	56268.87
320.097	56191.6
320.323	56117.8
320.548	56053.34
320.774	55972.14
320.999	55902
321.225	55808.38
321.45	55724.05
321.676	55651.98
321.901	55588.58
322.127	55507.56
322.352	55439.09
322.578	55384.27
322.803	55333.52
323.029	55275.63
323.254	55229.16
323.479	55162.56
323.705	55113.94
323.93	55059.09
324.155	55004.2
324.381	54942.31
324.606	54902.63
324.831	54846.43
325.057	54786.6
325.282	54712.74
325.507	54638.18
325.732	54566.49
325.958	54511.51
326.183	54454.31
326.408	54387.85
326.633	54317.22
326.858	54244.11
327.084	54164.03
327.309	54088.72
327.534	54020.72
327.759	53958.25
327.984	53897.22
328.209	53830.8
328.434	53765.07
328.659	53696.72
328.884	53647.87
329.109	53592.32
329.334	53539.83
329.559	53485.74
329.784	53432.34
330.009	53363.58
330.234	53284.18
330.459	53212.8
330.684	53131.23
330.909	53053.92
331.134	52966.71
331.359	52870.43
331.584	52795.07
331.809	52708.03
332.034	52624.25
332.259	52531.47
332.483	52442.05
332.708	52380.74
332.933	52307.42
333.158	52239.94
333.383	52173.82
333.607	52099.02
333.832	52021.94
334.057	51937.74
334.282	51869.94
334.506	51787.11
334.731	51720.09
334.956	51653.96
335.18	51576.2
335.405	51510.2
335.63	51442.14
335.854	51353.92
336.079	51286.51
336.303	51213.8
336.528	51133.56
336.753	51037.98
336.977	50942
337.202	50853.43
337.426	50767.16
337.651	50676.11
337.875	50576.03
338.1	50491.34
338.324	50398.05
338.549	50303.96
338.773	50213.85
338.997	50139.49
339.222	50066.85
339.446	49996.07
339.671	49924.12
339.895	49846.8
340.119	49777.8
340.344	49699.31
340.568	49614.98
340.792	49546.07
341.017	49467.87
341.241	49389.03
341.465	49298.62
341.689	49204.4
341.914	49110.94
342.138	49000.14
342.362	48909.54
342.586	48804.27
342.811	48707.87
343.035	48592.51
343.259	48473.14
343.483	48374.45
343.707	48264.11
343.931	48163.09
344.155	48065.34
344.38	47968.83
344.604	47890.52
344.828	47791.69
345.052	47697.92
345.276	47605.96
345.5	47522.12
345.724	47427.87
345.948	47340.96
346.172	47275.05
346.396	47186.74
346.62	47102.85
346.844	47018.2
347.068	46920.78
347.292	46809.63
347.515	46694.23
347.739	46576.31
347.963	46457.49
348.187	46362.8
348.411	46233.47
348.635	46095.14
348.859	45958.52
349.082	45836.4
349.306	45702.23
349.53	45572.25
349.754	45464.52
349.977	45356.71
350.201	45251.27
350.425	45145.69
350.649	45034.2
350.872	44928.07
351.096	44817.83
351.32	44722.4
351.543	44602.07
351.767	44494.02
351.99	44375.12
352.214	44259.87
352.438	44139.89
352.661	44015.27
352.885	43894.02
353.108	43773.22
353.332	43652.51
353.555	43534.76
353.779	43408.52
354.002	43291.94
354.226	43161.8
354.449	43046.54
354.673	42927.78
354.896	42825.02
355.12	42721.05
355.343	42609
355.566	42491.6
355.79	42382.22
356.013	42274.51
356.237	42166.34
356.46	42051.63
356.683	41947.29
356.907	41831.69
357.13	41714.63
357.353	41590.58
357.576	41472.34
357.8	41359.62
358.023	41237.65
358.246	41116.29
358.469	40989.16
358.693	40868.58
358.916	40755.54
359.139	40640.96
359.362	40529.09
359.585	40416.82
359.808	40307.14
360.031	40194.58
360.255	40083.43
360.478	39978.65
360.701	39887.18
360.924	39791.72
361.147	39693.2
361.37	39592.65
361.593	39499.58
361.816	39393.56
362.039	39286.74
362.262	39176.6
362.485	39066.83
362.708	38965.38
362.931	38862.27
363.154	38742.02
363.377	38638.47
363.599	38531.32
363.822	38428.2
364.045	38324.25
364.268	38232.63
364.491	38145.62
364.714	38074.72
364.936	38016.96
365.159	37970.23
365.382	37930.6
365.605	37922.52
365.828	37911.45
366.05	37894.83
366.273	37892.03
366.496	37873.91
366.718	37863.2
366.941	37833.23
367.164	37793.4
367.386	37728.63
367.609	37656.52
367.832	37578.78
368.054	37469.51
368.277	37348.23
368.5	37231.16
368.722	37074.25
368.945	36913.14
369.167	36751.36
369.39	36600.56
369.612	36449.29
369.835	36312.6
370.057	36166.27
370.28	36033.78
370.502	35911.42
370.725	35805.8
370.947	35702.76
371.169	35619.27
371.392	35551.74
371.614	35472.4
371.837	35401.49
372.059	35333.36
372.281	35267.91
372.504	35208.69
372.726	35146.98
372.948	35085.14
373.171	35027.09
373.393	34989.43
373.615	34970.82
373.837	34983.09
374.06	35004.83
374.282	35038.82
374.504	35070.05
374.726	35082.65
374.948	35089.76
375.17	35084.49
375.393	35074.31
375.615	35056.36
375.837	35036.23
376.059	35028.51
376.281	35013.82
376.503	35018.54
376.725	35024.16
376.947	35051.38
377.169	35093.03
377.391	35155.51
377.613	35245.98
377.835	35358.54
378.057	35515.74
378.279	35658.74
378.501	35756.82
378.723	35793.54
378.945	35774.16
379.167	35733.32
379.389	35693.4
379.611	35649
379.833	35596.91
380.054	35488.82
380.276	35351.27
380.498	35153.85
380.72	34971.96
380.942	34846.8
381.163	34798.03
381.385	34820.98
381.607	34864.51
381.829	34859.32
382.05	34838
382.272	34787.71
382.494	34768.65
382.716	34758.87
382.937	34764.92
383.159	34760.16
383.381	34727.16
383.602	34668.8
383.824	34583.85
384.045	34479.2
384.267	34394.11
384.488	34330.2
384.71	34285.36
384.932	34262.58
385.153	34242.91
385.375	34245.23
385.596	34264.54
385.818	34298.23
386.039	34365.43
386.261	34446.11
386.482	34564.14
386.703	34689.69
386.925	34836.29
387.146	34997.92
387.368	35150.54
387.589	35303.36
387.81	35401.2
388.032	35422.92
388.253	35366.45
388.474	35228.12
388.696	35068.23
388.917	34886.67
389.138	34717.98
389.359	34545
389.581	34374.76
389.802	34206.42
390.023	34045.12
390.244	33918.78
390.465	33880.83
390.687	33939
390.908	34088.02
391.129	34296.14
391.35	34555.05
391.571	34872.42
391.792	35215.27
392.013	35527.07
392.234	35775.42
392.455	35943.89
392.677	36052.6
392.898	36107.92
393.119	36146.67
393.34	36153.45
393.561	36103.29
393.782	35994.45
394.003	35789.4
394.223	35514.78
394.444	35234.65
394.665	34997.23
394.886	34835.36
395.107	34749.34
395.328	34704.14
395.549	34678.69
395.77	34642.11
395.99	34636.91
396.211	34666.89
396.432	34771.85
396.653	34950.32
396.874	35200.54
397.094	35511.43
397.315	35855.16
397.536	36185.32
397.757	36457.82
397.977	36624.87
398.198	36724.43
398.419	36747.82
398.639	36710.72
398.86	36586.22
399.081	36369.22
399.301	36087.16
399.522	35751.83
399.742	35396.09
399.963	35059
400.184	34736.29
400.404	34456.78
400.625	34212.47
400.845	34004.25
401.066	33821.03
401.286	33680.54
401.507	33582.89
401.727	33498.69
401.948	33421.45
402.168	33326.83
402.388	33217.47
402.609	33147.2
402.829	33108.47
403.05	33111.23
403.27	33148.36
403.49	33212.16
403.711	33311.65
403.931	33451.94
404.151	33618.18
404.372	33799.56
404.592	33975.92
404.812	34107.78
405.032	34155.2
405.253	34116.02
405.473	34012.03
405.693	33835.07
405.913	33615.09
406.133	33325.62
406.353	32999.92
406.574	32635.91
406.794	32267.02
407.014	31939.78
407.234	31684.78
407.454	31546.31
407.674	31490.18
407.894	31468.82
408.114	31479.16
408.334	31499
408.554	31567.25
408.774	31651.52
408.994	31748.27
409.214	31804.23
409.434	31775.07
409.654	31678.07
409.874	31534.8
410.094	31408.03
410.314	31302.91
410.534	31217.65
410.754	31146.09
410.974	31092.98
411.193	31083.34
411.413	31127.54
411.633	31236.65
411.853	31405.45
412.073	31602.85
412.292	31784.09
412.512	31932.72
412.732	32037.18
412.952	32093.82
413.171	32110.72
413.391	32083.05
413.611	31987.45
413.831	31852.69
414.05	31682.03
414.27	31492.83
414.489	31295.32
414.709	31099.91
414.929	30921.54
415.148	30783.25
415.368	30693.94
415.587	30641.92
415.807	30568.23
416.026	30500.67
416.246	30420.6
416.465	30352.2
416.685	30291.49
416.904	30230.8
417.124	30180.18
417.343	30115.63
417.563	30057.51
417.782	30006.94
418.002	29971.71
418.221	29991.16
418.44	30018.82
418.66	30053.8
418.879	30094.56
419.098	30161.71
419.318	30305.63
419.537	30499.78
419.756	30757.92
419.976	31066.76
420.195	31437.52
420.414	31875.8
420.633	32347.54
420.853	32805.69
421.072	33215.49
421.291	33541.23
421.51	33801.25
421.729	33984.43
421.948	34125.76
422.168	34245.11
422.387	34304.92
422.606	34249.92
422.825	34039.89
423.044	33704.11
423.263	33335.76
423.482	33002.89
423.701	32752.38
423.92	32545.49
424.139	32356.67
424.358	32133.47
424.577	31802.87
424.796	31417.18
425.015	31024.54
425.234	30688.82
425.453	30436.62
425.672	30259.67
425.891	30165.42
426.11	30163.54
426.328	30264.03
426.547	30368.2
426.766	30441.72
426.985	30475.72
427.204	30477.32
427.422	30548.54
427.641	30652.22
427.86	30771.83
428.079	30910.31
428.297	31078.8
428.516	31279.34
428.735	31460.22
428.954	31683.22
429.172	31956.91
429.391	32306.31
429.61	32695.62
429.828	33005.14
430.047	33211.52
430.265	33283.22
430.484	33205.72
430.703	32929.22
430.921	32443.83
431.14	31831.34
431.358	31181.31
431.577	30557.56
431.795	29979.83
432.014	29472.38
432.232	29153.03
432.451	29124.72
432.669	29422.54
432.887	29862.65
433.106	30262.49
433.324	30515.47
433.543	30615.49
433.761	30667.49
433.979	30754.23
434.198	30860.85
434.416	30934.25
434.634	30862.52
434.853	30565.05
435.071	30080.38
435.289	29601.32
435.507	29299.72
435.726	29205.58
435.944	29254.87
436.162	29266.63
436.38	29200.02
436.598	29112.82
436.817	29058.38
437.035	29055.03
437.253	29092.22
437.471	29119.43
437.689	29108.52
437.907	29043.52
438.125	28958.09
438.343	28893.92
438.561	28880.51
438.78	28869.16
438.998	28830.72
439.216	28762.63
439.434	28675.87
439.652	28666.31
439.869	28790.4
440.087	29082.38
440.305	29516.18
440.523	30020.98
440.741	30482.92
440.959	30874.23
441.177	31183.8
441.395	31457.8
441.613	31697.2
441.831	31926.62
442.048	32103.65
442.266	32169.63
442.484	32103.65
442.702	31901.94
442.919	31634.58
443.137	31422.09
443.355	31272.89
443.573	31220.6
443.79	31224.78
444.008	31259.22
444.226	31268.87
444.443	31196.14
444.661	31059.16
444.879	30875.58
445.096	30724.14
445.314	30639.56
445.532	30573.02
445.749	30498.65
445.967	30393.12
446.184	30247.74
446.402	30092.72
446.619	29943.47
446.837	29819.87
447.054	29692.47
447.272	29553.65
447.489	29398.71
447.707	29213.58
447.924	29046.42
448.141	28918.02
448.359	28835.02
448.576	28782.62
448.794	28727.89
449.011	28674.98
449.228	28610.43
449.446	28554.43
449.663	28497.09
449.88	28386.09
450.098	28229.96
450.315	28028.16
450.532	27850.29
450.749	27682.92
450.967	27516.05
451.184	27364.82
451.401	27214.6
451.618	27065.47
451.835	26904.09
452.052	26729.52
452.27	26563.83
452.487	26417.63
452.704	26295.2
452.921	26145.07
453.138	25958.91
453.355	25769.72
453.572	25592.45
453.789	25481.4
454.006	25440.58
454.223	25469.4
454.44	25521.62
454.657	25562.67
454.874	25571.11
455.091	25542.83
455.308	25501.23
455.525	25503.31
455.742	25534.65
455.959	25593.49
456.176	25636.03
456.393	25661.87
456.609	25685.38
456.826	25747.72
457.043	25879.83
457.26	26078.49
457.477	26302.14
457.693	26528.96
457.91	26717.69
458.127	26874.07
458.344	26981.38
458.56	27053.43
458.777	27068.62
458.994	26988.27
459.21	26818.76
459.427	26571.09
459.644	26293.58
459.86	26038.02
460.077	25810.72
460.294	25593.16
460.51	25341.78
460.727	25026.03
460.943	24629.07
461.16	24214.25
461.376	23869.65
461.593	23609.12
461.809	23440.94
462.026	23337.52
462.242	23262
462.459	23240.43
462.675	23284.32
462.892	23408.51
463.108	23626.42
463.324	23939.62
463.541	24314.67
463.757	24700.2
463.974	25064.12
464.19	25362.38
464.406	25620.96
464.623	25845.91
464.839	25977.2
465.055	26012.91
465.271	25916.89
465.488	25701.87
465.704	25386.36
465.92	25009.74
466.136	24599.8
466.353	24180.38
466.569	23784.12
466.785	23390.92
467.001	23001.71
467.217	22635.36
467.433	22274.16
467.649	21961.4
467.865	21692.78
468.082	21465.16
468.298	21239.56
468.514	20995.6
468.73	20731.74
468.946	20452.45
469.162	20150.63
469.378	19835.2
469.594	19525.83
469.81	19247.23
470.026	19015.56
470.242	18837.87
470.457	18719.63
470.673	18653.62
470.889	18615.29
471.105	18613.03
471.321	18660.23
471.537	18742.6
471.753	18881.51
471.968	19056.6
472.184	19259.92
472.4	19457.38
472.616	19639.6
472.832	19775.65
473.047	19867.34
473.263	19936.96
473.479	20003.62
473.694	20075.74
473.91	20177.91
474.126	20277.38
474.341	20350.94
474.557	20379.03
474.773	20359.98
474.988	20329.65
475.204	20330.52
475.42	20358.47
475.635	20396.69
475.851	20395.63
476.066	20321.83
476.282	20180.71
476.497	20014.94
476.713	19900.16
476.928	19853.56
477.144	19879.27
477.359	19923.91
477.575	19919.29
477.79	19874.82
478.005	19835.07
478.221	19828.52
478.436	19885.2
478.651	19984.72
478.867	20101.32
479.082	20181.2
479.297	20229.09
479.513	20228.05
479.728	20221.07
479.943	20231.14
480.159	20296.49
480.374	20390.27
480.589	20514.09
480.804	20604.32
481.019	20642.36
481.235	20611.36
481.45	20504.14
481.665	20354.54
481.88	20241.52
482.095	20165.31
482.31	20141.83
482.525	20124.05
482.741	20115.11
482.956	20096.14
483.171	20139.67
483.386	20262.43
483.601	20451.05
483.816	20710.65
484.031	21140.14
484.246	22493.23
484.461	25275.2
484.676	29046.03
484.891	32801.72
485.105	36524.67
485.32	39806.4
485.535	41762.25
485.75	42454.6
485.965	42505.49
486.18	42434.22
486.395	42184.12
486.609	40946.07
486.824	38176.11
487.039	34309.94
487.254	30373.78
487.469	26416.63
487.683	22871.89
487.898	20610.11
488.113	19577.03
488.327	19161.65
488.542	18842.54
488.757	18569.62
488.972	18342.42
489.186	18179.58
489.401	18086.31
489.615	18056.43
489.83	18030.09
490.045	18000.03
490.259	17941.67
490.474	17822.12
490.688	17668.11
490.903	17496.91
491.117	17324.12
491.332	17174.83
491.546	17052.49
491.761	16949.02
491.975	16856.11
492.19	16779.51
492.404	16709.22
492.618	16640.07
492.833	16594.22
493.047	16561.2
493.262	16534.54
493.476	16493.98
493.69	16423.31
493.905	16312.85
494.119	16159.49
494.333	15973.58
494.547	15814.2
494.762	15703.67
494.976	15686.34
495.19	15754.05
495.404	15844.69
495.619	15920.38
495.833	15930.65
496.047	15884.12
496.261	15803.8
496.475	15726.69
496.689	15666.43
496.903	15599.18
497.117	15521.8
497.332	15402.6
497.546	15242.94
497.76	15084.58
497.974	14971.07
498.188	14931.49
498.402	14952.34
498.616	15034.71
498.83	15123.2
499.044	15182.09
499.258	15179.43
499.472	15122.34
499.685	15040.25
499.899	14956.96
500.113	14902.11
500.327	14846.02
500.541	14780.38
500.755	14725.4
500.969	14674.74
501.183	14644.38
501.396	14653.6
501.61	14693.58
501.824	14749.51
502.038	14800.14
502.251	14803.27
502.465	14762
502.679	14675.63
502.892	14563.16
503.106	14424.11
503.32	14262.2
503.533	14106.91
503.747	13953.54
503.961	13832.63
504.174	13719.38
504.388	13597.54
504.602	13481.22
504.815	13373.05
505.029	13295.71
505.242	13268.14
505.456	13272.94
505.669	13265.27
505.883	13210.94
506.096	13121.56
506.31	12992.83
506.523	12875.62
506.736	12787.16
506.95	12729.58
507.163	12672.03
507.377	12615.42
507.59	12529.83
507.803	12423.25
508.017	12332.32
508.23	12281.22
508.443	12259.34
508.657	12260.02
508.87	12245.71
509.083	12214.47
509.296	12162.31
509.51	12110.12
509.723	12051.29
509.936	12006.45
510.149	11992.96
510.363	11999.22
510.576	12007.67
510.789	11997.32
511.002	11972.65
511.215	11926.2
511.428	11871.49
511.641	11820.14
511.854	11773.31
512.067	11720.32
512.28	11664.43
512.493	11592.96
512.707	11520.2
512.92	11449.82
513.132	11405.16
513.345	11367.83
513.558	11334.29
513.771	11281.85
513.984	11207.67
514.197	11123.92
514.41	11059.23
514.623	11004.43
514.836	10966.51
515.049	10943.51
515.262	10913.14
515.474	10887.12
515.687	10860.78
515.9	10834.8
516.113	10815.71
516.325	10803.4
516.538	10777.14
516.751	10734.34
516.964	10677.16
517.176	10607.22
517.389	10537.82
517.602	10504.69
517.814	10480.29
518.027	10473.27
518.24	10483.58
518.452	10494.42
518.665	10489.6
518.877	10465.12
519.09	10411.45
519.303	10344.67
519.515	10276.8
519.728	10205.43
519.94	10134.91
520.153	10061.54
520.365	9975.45
520.578	9871.6
520.79	9758.67
521.002	9653.98
521.215	9581.89
521.427	9545.34
521.64	9530.89
521.852	9526.83
522.064	9520.49
522.277	9488.4
522.489	9450.76
522.701	9422.49
522.914	9413.4
523.126	9418.58
523.338	9432.8
523.551	9438.72
523.763	9433.65
523.975	9414.49
524.187	9386.43
524.399	9364.56
524.612	9351.11
524.824	9331.11
525.036	9309.51
525.248	9286.23
525.46	9268.76
525.672	9261.16
525.884	9261.52
526.096	9274.45
526.308	9286.07
526.521	9283.8
526.733	9262.18
526.945	9230.18
527.157	9219.22
527.369	9226.31
527.581	9261.49
527.793	9316.38
528.004	9364.27
528.216	9395.4
528.428	9410.65
528.64	9410.36
528.852	9415.18
529.064	9429.31
529.276	9437.09
529.488	9418.05
529.699	9362.63
529.911	9270.65
530.123	9153.65
530.335	9050.52
530.547	8969.62
530.758	8907.89
530.97	8866.25
531.182	8836.69
531.393	8823.72
531.605	8845.43
531.817	8910.25
532.029	9013.67
532.24	9154.63
532.452	9306.45
532.663	9446.18
532.875	9579.71
533.087	9700.29
533.298	9827.36
533.51	9950.25
533.721	10056.27
533.933	10144.25
534.144	10195.2
534.356	10193.71
534.567	10141.49
534.779	10063.27
534.99	9960.63
535.202	9842.58
535.413	9702.07
535.624	9551.69
535.836	9404.6
536.047	9270.07
536.259	9148.03
536.47	9054.12
536.681	9014.07
536.893	9012.05
537.104	9040.07
537.315	9103.32
537.526	9181.22
537.738	9288.83
537.949	9405.87
538.16	9527.72
538.371	9626.6
538.582	9689.74
538.794	9710.76
539.005	9677.42
539.216	9621.83
539.427	9563.2
539.638	9511.58
539.849	9481.11
540.06	9460.74
540.272	9436.36
540.483	9412.16
540.694	9403.51
540.905	9416.42
541.116	9461.87
541.327	9528.8
541.538	9591.36
541.749	9628.52
541.96	9642.71
542.17	9634.72
542.381	9632.11
542.592	9650.62
542.803	9681.45
543.014	9713
543.225	9740.36
543.436	9743.07
543.647	9750.09
543.857	9750.32
544.068	9742.87
544.279	9715.63
544.49	9656
544.701	9560.78
544.911	9441.6
545.122	9304.18
545.333	9170.32
545.543	9043.71
545.754	8943.89
545.965	8873.32
546.175	8844.82
546.386	8887.67
546.597	8996.72
546.807	9158.56
547.018	9346.83
547.229	9519.02
547.439	9655.32
547.65	9737.92
547.86	9768.85
548.071	9746.92
548.281	9680.02
548.492	9582.87
548.702	9449.67
548.913	9283.07
549.123	9087.6
549.333	8882.56
549.544	8689.69
549.754	8515.03
549.965	8367.76
550.175	8261.87
550.385	8218.03
550.596	8241.38
550.806	8310.71
551.016	8402.16
551.227	8485.03
551.437	8554.74
551.647	8602.42
551.857	8639.34
552.068	8695.09
552.278	8777.43
552.488	8868.6
552.698	8927.6
552.908	8911.96
553.119	8819.78
553.329	8665.96
553.539	8518.34
553.749	8408.91
553.959	8360.52
554.169	8363.12
554.379	8389.52
554.589	8410.91
554.799	8437.38
555.009	8446.87
555.219	8447.4
555.429	8457.58
555.639	8471.82
555.849	8466.07
556.059	8455.27
556.269	8423.07
556.479	8371.69
556.689	8303.98
556.899	8223.45
557.109	8099.92
557.319	7981.07
557.528	7874.72
557.738	7787.87
557.948	7725.89
558.158	7694.83
558.368	7672.52
558.577	7677.78
558.787	7713.16
558.997	7767.03
559.207	7868.85
559.416	8012.6
559.626	8179.34
559.836	8372.71
560.045	8548.62
560.255	8702
560.465	8826.23
560.674	8908.22
560.884	8923.43
561.093	8893.63
561.303	8838.27
561.512	8746.52
561.722	8657.89
561.932	8573.05
562.141	8490.54
562.351	8435.11
562.56	8419.36
562.769	8437.69
562.979	8493.89
563.188	8579.38
563.398	8669.12
563.607	8765.29
563.817	8857.52
564.026	8934.03
564.235	8986.18
564.445	9020.83
564.654	9048.45
564.863	9060.6
565.073	9070.22
565.282	9097.4
565.491	9157.78
565.7	9296.05
565.91	9507.76
566.119	9771.62
566.328	10070.83
566.537	10385.38
566.746	10702.03
566.956	11039.38
567.165	11436.85
567.374	11883
567.583	12352.12
567.792	12882.16
568.001	13467.47
568.21	14122.91
568.419	14880.23
568.628	15699.54
568.837	16503.51
569.046	17259.58
569.255	17959.31
569.464	18630.56
569.673	19338.71
569.882	20072.14
570.091	20780.45
570.3	21417.78
570.509	21942.62
570.718	22304.78
570.927	22504.29
571.135	22519.56
571.344	22403.8
571.553	22308.16
571.762	22292.18
571.971	22406.54
572.18	22705.87
572.388	23055.74
572.597	23438.87
572.806	23827.82
573.014	24237.07
573.223	24722.22
573.432	25368.54
573.641	26152.49
573.849	26878.54
574.058	27380.51
574.266	27555.31
574.475	27340.42
574.684	27000.89
574.892	26656.78
575.101	26391.83
575.309	26319.34
575.518	26331.91
575.726	26410.54
575.935	26674.92
576.143	27204.42
576.352	28110.45
576.56	29345.27
576.769	30695.14
576.977	31811.94
577.186	32524.02
577.394	32754.65
577.602	32530.14
577.811	32120.22
578.019	31708.98
578.228	31265.27
578.436	30793.18
578.644	30210.65
578.852	29466.72
579.061	28716.58
579.269	28124.87
579.477	27745.52
579.685	27904.38
579.894	28840.87
580.102	30457.42
580.31	32540.42
580.518	34691.32
580.726	36432.67
580.935	37649.16
581.143	38338.47
581.351	38561.91
581.559	38445.42
581.767	38062.76
581.975	37246.02
582.183	35735.56
582.391	33593.56
582.599	31065.16
582.807	28543.69
583.015	26464.4
583.223	24931.78
583.431	24031.27
583.639	23756.29
583.847	24024.6
584.055	24738.11
584.263	25651.76
584.471	26579.52
584.678	27340.96
584.886	27737.92
585.094	27722.56
585.302	27403.16
585.51	26967.32
585.718	26498.58
585.925	26088.02
586.133	25741.11
586.341	25349.42
586.549	24965.2
586.756	24616.52
586.964	24340.72
587.172	24231.36
587.379	24247.85
587.587	24243.47
587.795	23991.49
588.002	23435.12
588.21	22629.8
588.417	21639.02
588.625	20647.96
588.833	19702.38
589.04	18842.89
589.248	18070.16
589.455	17322.94
589.663	16622.87
589.87	16017.71
590.078	15595.82
590.285	15365.74
590.492	15194.42
590.7	14991.22
590.907	14799.52
591.115	14814.32
591.322	15173.4
591.529	15877.52
591.737	16832.96
591.944	17812.96
592.151	18682.85
592.359	19394.47
592.566	19917.67
592.773	20265.45
592.981	20498.14
593.188	20687.27
593.395	20773.87
593.602	20735.29
593.809	20553.02
594.017	20188.22
594.224	19772.45
594.431	19349.92
594.638	18925.87
594.845	18536.58
595.052	18189.71
595.259	17896.51
595.466	17592.82
595.673	17217.96
595.88	16716
596.088	16160.78
596.295	15630.03
596.502	15152.2
596.709	14760.42
596.915	14462.96
597.122	14338.58
597.329	14519.96
597.536	15003.76
597.743	15624.72
597.95	16193.42
598.157	16558.07
598.364	16710.91
598.571	16803.11
598.777	16961.05
598.984	17214.85
599.191	17520.87
599.398	17785.16
599.605	17864.09
599.811	17743.49
600.018	17466.29
600.225	17165.36
600.431	16961.32
600.638	16809.05
600.845	16667.74
601.052	16509.22
601.258	16341.52
601.465	16245.82
601.671	16248.56
601.878	16339.07
602.085	16468.69
602.291	16621.11
602.498	16708.65
602.704	16687.36
602.911	16580.67
603.117	16373.89
603.324	16077.63
603.53	15737.67
603.737	15370.71
603.943	14941.4
604.15	14501.71
604.356	14086.74
604.562	13688.2
604.769	13322.4
604.975	13025.87
605.181	12780.82
605.388	12605.54
605.594	12521.45
605.8	12492.38
606.007	12427.72
606.213	12299.32
606.419	12054.6
606.625	11667.47
606.832	11228.6
607.038	10833.85
607.244	10511.51
607.45	10296.98
607.656	10099.98
607.863	9830.92
608.069	9484.03
608.275	9177.02
608.481	8981.91
608.687	8893.45
608.893	8870.49
609.099	8836.32
609.305	8759.96
609.511	8636.11
609.717	8489.67
609.923	8390.71
610.129	8336.89
610.335	8322.58
610.541	8252.94
610.747	8027.4
610.953	7696.92
611.159	7364.09
611.365	7098.62
611.571	6922.32
611.776	6806.25
611.982	6667.27
612.188	6499.83
612.394	6342.09
612.6	6191.09
612.806	6059.36
613.011	5966.69
613.217	5888.27
613.423	5785.31
613.628	5662.03
613.834	5528.71
614.04	5412.94
614.246	5339.49
614.451	5240.96
614.657	5095.47
614.862	4906.87
615.068	4694.14
615.274	4501.85
615.479	4344.09
615.685	4211.85
615.89	4090.45
616.096	3964.14
616.301	3822.09
616.507	3665.78
616.712	3534.92
616.918	3430.31
617.123	3339.45
617.329	3255.96
617.534	3159.83
617.74	3053.05
617.945	2944.67
618.15	2829.38
618.356	2678.47
618.561	2429.45
618.766	2135.72
618.972	1838.4
619.177	1559.58
619.382	1309.02
619.588	1080.76
619.793	955.51
619.998	805.23
620.203	619.98
620.408	387.32
620.614	147.27
