Data from green1w4_MAYP1115451__0__10-17-05-971.txt Node

Date: Thu May 23 10:17:05 MDT 2024
User: Modes Lab
Spectrometer: MAYP111545
Trigger mode: 0
Integration Time (sec): 1.000000E-1
Scans to average: 5
Electric dark correction enabled: true
Nonlinearity correction enabled: false
Boxcar width: 0
XAxis mode: Wavelengths
Number of Pixels in Spectrum: 2068
>>>>>Begin Spectral Data<<<<<
165.214	996.37
165.449	-187.03
165.683	36.57
165.918	-14.23
166.152	215.57
166.387	423.37
166.621	975.37
166.856	1591.37
167.09	1657.17
167.325	1639.77
167.559	1645.57
167.794	1644.57
168.028	1626.57
168.263	1641.17
168.497	1640.57
168.732	1615.97
168.966	1675.77
169.2	1649.37
169.435	1628.57
169.669	1653.97
169.903	1727.57
170.138	1663.97
170.372	1666.77
170.606	1666.17
170.841	1660.57
171.075	1691.37
171.309	1682.17
171.544	1644.37
171.778	1655.57
172.012	1661.97
172.246	1696.37
172.48	1665.97
172.715	1664.17
172.949	1658.37
173.183	1680.57
173.417	1640.77
173.651	1678.37
173.885	1667.57
174.119	1689.97
174.354	1643.97
174.588	1675.37
174.822	1705.37
175.056	1694.37
175.29	1668.57
175.524	1664.77
175.758	1691.57
175.992	1667.97
176.226	1679.97
176.46	1677.17
176.694	1650.37
176.928	1678.97
177.162	1698.37
177.396	1640.77
177.63	1657.57
177.864	1674.37
178.097	1697.77
178.331	1696.37
178.565	1687.77
178.799	1705.77
179.033	1655.57
179.267	1682.37
179.5	1677.57
179.734	1699.77
179.968	1684.77
180.202	1689.17
180.436	1663.37
180.669	1638.97
180.903	1674.57
181.137	1702.57
181.371	1693.77
181.604	1704.17
181.838	1687.17
182.072	1659.17
182.305	1699.57
182.539	1695.37
182.772	1667.37
183.006	1696.97
183.24	1727.57
183.473	1740.77
183.707	1650.97
183.94	1699.37
184.174	1691.37
184.408	1665.97
184.641	1819.77
184.875	1707.37
185.108	1682.37
185.342	1714.37
185.575	1694.57
185.808	1690.37
186.042	1666.37
186.275	1716.37
186.509	1712.97
186.742	1726.97
186.976	1691.97
187.209	1760.17
187.442	1687.97
187.676	1674.37
187.909	1701.97
188.142	1699.37
188.376	1682.57
188.609	1714.57
188.842	1665.17
189.076	1683.17
189.309	1686.97
189.542	1699.97
189.775	1728.37
190.009	1670.37
190.242	1694.77
190.475	1727.37
190.708	1692.37
190.941	1712.17
191.174	1713.57
191.408	1672.97
191.641	1707.37
191.874	1719.57
192.107	1726.37
192.34	1739.57
192.573	1690.37
192.806	1715.17
193.039	1703.57
193.272	1766.17
193.505	1764.37
193.738	1740.57
193.971	1716.77
194.204	1705.97
194.437	1751.97
194.67	1737.77
194.903	1750.97
195.136	1756.57
195.369	1740.77
195.602	1736.77
195.835	1738.17
196.068	1727.77
196.301	1743.77
196.533	1754.17
196.766	1721.77
196.999	1747.97
197.232	1764.77
197.465	1725.77
197.698	1744.77
197.93	1745.37
198.163	1764.57
198.396	1774.57
198.629	1723.57
198.861	1737.37
199.094	1743.37
199.327	1758.37
199.559	1764.77
199.792	1761.17
200.025	1779.97
200.257	1764.57
200.49	1761.97
200.723	1744.17
200.955	1758.77
201.188	1737.17
201.42	1787.57
201.653	1760.97
201.886	1775.37
202.118	1775.17
202.351	1774.37
202.583	1803.37
202.816	1784.17
203.048	1783.77
203.281	1797.77
203.513	1779.97
203.745	1799.17
203.978	1794.57
204.21	1786.57
204.443	1775.17
204.675	1774.37
204.907	1788.17
205.14	1790.57
205.372	1775.57
205.605	1803.97
205.837	1751.77
206.069	1797.77
206.302	1823.97
206.534	1788.17
206.766	1834.77
206.998	1797.57
207.231	1801.97
207.463	1762.17
207.695	1787.97
207.927	1810.37
208.159	1820.77
208.392	1806.77
208.624	1798.77
208.856	1850.17
209.088	1806.37
209.32	1802.17
209.552	1783.77
209.784	1845.97
210.017	1767.57
210.249	1804.37
210.481	1824.37
210.713	1823.97
210.945	1837.57
211.177	1819.97
211.409	1855.37
211.641	1841.37
211.873	1858.97
212.105	1846.37
212.337	1812.57
212.569	1836.97
212.801	1843.37
213.033	1820.17
213.264	1855.17
213.496	1853.97
213.728	1833.17
213.96	1827.37
214.192	1858.97
214.424	1822.57
214.656	1857.17
214.887	1848.37
215.119	1892.37
215.351	1836.77
215.583	1846.57
215.815	1868.77
216.046	1875.57
216.278	1903.77
216.51	1850.97
216.741	1857.97
216.973	1847.97
217.205	1833.77
217.436	1847.57
217.668	1831.17
217.9	1846.57
218.131	1844.57
218.363	1883.77
218.595	1866.57
218.826	2008.57
219.058	1871.57
219.289	1835.77
219.521	1876.97
219.752	1914.17
219.984	1895.17
220.215	1896.77
220.447	1849.77
220.678	1840.37
220.91	1892.57
221.141	1873.77
221.373	1876.37
221.604	1843.57
221.836	1858.57
222.067	1853.17
222.298	1877.97
222.53	1896.97
222.761	1856.17
222.993	1921.37
223.224	1878.57
223.455	1847.37
223.686	1893.97
223.918	1884.57
224.149	1910.77
224.38	1893.37
224.612	1905.77
224.843	1882.37
225.074	1865.97
225.305	1909.17
225.536	1835.17
225.768	1860.17
225.999	1906.37
226.23	1910.97
226.461	1909.97
226.692	1874.17
226.923	1918.97
227.155	1900.57
227.386	1877.77
227.617	1855.77
227.848	1877.17
228.079	1896.97
228.31	1984.57
228.541	1937.17
228.772	1882.37
229.003	1880.17
229.234	1945.57
229.465	1890.97
229.696	1923.37
229.927	1913.77
230.158	1890.57
230.389	1901.57
230.62	1876.97
230.85	1853.17
231.081	1884.57
231.312	1916.37
231.543	1873.97
231.774	1933.77
232.005	1917.17
232.236	1859.57
232.466	1887.97
232.697	1886.97
232.928	1873.17
233.159	1911.37
233.389	1899.77
233.62	1921.17
233.851	1896.97
234.082	1884.17
234.312	1902.97
234.543	1921.37
234.774	1887.17
235.004	1900.57
235.235	1866.97
235.466	1890.37
235.696	1858.37
235.927	1860.57
236.157	1900.37
236.388	1932.57
236.618	1861.37
236.849	1910.17
237.08	1912.77
237.31	1890.37
237.541	1876.57
237.771	1880.77
238.002	1897.37
238.232	1893.97
238.463	1938.17
238.693	1876.57
238.923	1878.37
239.154	1901.57
239.384	1874.97
239.615	1893.57
239.845	1903.77
240.075	1886.97
240.306	1887.17
240.536	1893.57
240.766	1893.17
240.997	1889.37
241.227	1895.77
241.457	1883.57
241.687	1880.77
241.918	1914.97
242.148	1905.97
242.378	1901.57
242.608	1890.97
242.839	1902.37
243.069	1924.17
243.299	1917.37
243.529	1889.37
243.759	1899.17
243.989	1893.17
244.22	1893.97
244.45	1882.77
244.68	2181.97
244.91	1892.97
245.14	1907.97
245.37	1908.57
245.6	1870.77
245.83	1898.57
246.06	1893.77
246.29	1877.37
246.52	1883.97
246.75	1891.37
246.98	1892.77
247.21	1891.77
247.44	1936.77
247.67	1892.37
247.9	1898.57
248.13	1915.37
248.359	1877.17
248.589	1899.97
248.819	1903.37
249.049	1887.77
249.279	1917.77
249.509	1909.97
249.738	1876.97
249.968	1899.17
250.198	1855.77
250.428	1938.77
250.657	1864.17
250.887	1902.17
251.117	1888.77
251.347	1868.57
251.576	1914.37
251.806	1863.37
252.036	1902.57
252.265	1919.37
252.495	1882.77
252.725	1893.37
252.954	1906.77
253.184	1886.17
253.413	1948.77
253.643	1883.57
253.873	1875.17
254.102	1928.17
254.332	1903.17
254.561	1877.77
254.791	1887.17
255.02	1905.37
255.25	1887.37
255.479	1866.17
255.708	1879.37
255.938	1877.17
256.167	1893.37
256.397	1887.97
256.626	1867.57
256.856	1890.57
257.085	1865.17
257.314	1868.97
257.544	1855.17
257.773	1859.97
258.002	1914.77
258.232	1874.77
258.461	1851.17
258.69	1868.17
258.919	1882.97
259.149	1882.17
259.378	1878.77
259.607	1881.17
259.836	1888.57
260.065	1821.77
260.295	1863.77
260.524	1884.17
260.753	1867.57
260.982	1884.17
261.211	1872.57
261.44	1878.17
261.669	1905.57
261.899	1880.77
262.128	1834.17
262.357	1892.37
262.586	1860.17
262.815	1875.37
263.044	1852.97
263.273	1843.37
263.502	1861.17
263.731	1881.77
263.96	1861.77
264.189	1845.17
264.418	2218.37
264.646	1872.37
264.875	1860.17
265.104	1840.57
265.333	1849.77
265.562	1849.37
265.791	1824.37
266.02	1825.37
266.249	1850.77
266.477	1901.17
266.706	1879.57
266.935	1874.57
267.164	1831.77
267.393	1846.77
267.621	1860.97
267.85	1809.17
268.079	1829.77
268.307	1887.57
268.536	1865.37
268.765	1860.37
268.993	1849.17
269.222	1928.57
269.451	1836.97
269.679	1850.77
269.908	1876.57
270.137	1868.77
270.365	1837.57
270.594	1864.57
270.822	1844.97
271.051	1877.17
271.279	1823.37
271.508	1855.77
271.736	1842.97
271.965	1857.37
272.193	1836.17
272.422	1837.37
272.65	1831.17
272.879	1888.37
273.107	1846.57
273.336	1853.17
273.564	1892.77
273.792	1859.57
274.021	1828.17
274.249	1857.97
274.477	1834.17
274.706	1856.97
274.934	1826.77
275.162	1863.37
275.391	1834.57
275.619	1858.37
275.847	1838.77
276.075	1820.57
276.304	1868.37
276.532	1868.17
276.76	1861.97
276.988	1845.57
277.216	1844.97
277.445	1853.17
277.673	1853.17
277.901	1840.57
278.129	1820.77
278.357	1863.97
278.585	1823.77
278.813	1835.77
279.041	1857.77
279.269	1869.57
279.497	1860.17
279.725	1845.77
279.954	1841.77
280.182	1842.17
280.41	1842.97
280.637	1864.97
280.865	1831.97
281.093	1835.77
281.321	1821.17
281.549	1816.17
281.777	1843.97
282.005	1835.97
282.233	1867.57
282.461	1833.17
282.689	1805.97
282.916	1836.37
283.144	1833.17
283.372	1851.37
283.6	1834.77
283.828	1883.57
284.055	1859.97
284.283	1851.97
284.511	1849.97
284.739	1843.77
284.966	1815.37
285.194	1808.77
285.422	1858.77
285.649	1847.57
285.877	1842.57
286.105	1844.97
286.332	1828.97
286.56	1825.17
286.788	1828.77
287.015	1808.77
287.243	1834.17
287.47	1835.97
287.698	1906.17
287.925	1847.57
288.153	1858.17
288.381	1810.97
288.608	1824.37
288.836	1833.17
289.063	1861.37
289.29	1814.97
289.518	1830.97
289.745	1801.97
289.973	1864.57
290.2	1842.17
290.428	1807.37
290.655	1810.17
290.882	1831.77
291.11	1826.17
291.337	1809.37
291.564	1821.37
291.792	1849.57
292.019	1848.17
292.246	1853.37
292.473	1820.97
292.701	1823.77
292.928	1785.17
293.155	1829.37
293.382	1810.97
293.61	1798.37
293.837	1837.37
294.064	1778.57
294.291	1808.17
294.518	1838.17
294.745	1792.97
294.972	1824.37
295.2	1805.77
295.427	1774.77
295.654	1809.37
295.881	1812.97
296.108	1784.17
296.335	1802.77
296.562	1822.57
296.789	1809.37
297.016	1790.77
297.243	1790.57
297.47	1816.57
297.697	1841.17
297.924	1808.97
298.151	1830.17
298.378	1797.57
298.604	1801.97
298.831	1783.97
299.058	1793.57
299.285	1760.17
299.512	1810.17
299.739	1785.97
299.966	1811.97
300.192	1769.77
300.419	1808.97
300.646	1792.97
300.873	1784.57
301.099	1802.37
301.326	1788.77
301.553	1780.97
301.78	1781.57
302.006	1784.37
302.233	1776.77
302.46	1785.97
302.686	1780.37
302.913	1954.77
303.14	1778.37
303.366	1810.97
303.593	1778.37
303.819	1784.37
304.046	1792.37
304.272	1791.37
304.499	1794.57
304.725	1764.77
304.952	1775.77
305.179	1749.77
305.405	1793.57
305.631	1783.97
305.858	1763.57
306.084	1754.77
306.311	1763.57
306.537	1850.77
306.764	1778.37
306.99	1781.57
307.216	1758.57
307.443	1779.37
307.669	1759.97
307.895	1739.77
308.122	1771.57
308.348	1805.97
308.574	1752.17
308.801	1762.77
309.027	1757.97
309.253	1755.37
309.479	1802.17
309.706	1736.57
309.932	1794.97
310.158	1777.37
310.384	1760.57
310.61	1741.17
310.837	1787.77
311.063	1731.97
311.289	1735.17
311.515	1775.17
311.741	1799.17
311.967	1737.37
312.193	1758.57
312.419	1745.77
312.645	1772.37
312.871	1726.37
313.097	1801.37
313.323	1767.57
313.549	1770.37
313.775	1737.77
314.001	1759.37
314.227	1788.37
314.453	1800.17
314.679	1797.37
314.905	1757.57
315.131	1752.77
315.357	1739.37
315.583	1793.77
315.809	1777.57
316.034	1775.77
316.26	1755.57
316.486	1776.77
316.712	1789.17
316.938	1756.77
317.163	1787.77
317.389	1783.77
317.615	1783.97
317.841	1800.77
318.066	1735.37
318.292	1778.37
318.518	1795.97
318.743	1769.97
318.969	1778.97
319.195	1777.97
319.42	1797.97
319.646	1776.57
319.872	1767.57
320.097	1830.37
320.323	1839.97
320.548	1765.97
320.774	1851.37
320.999	1795.17
321.225	1824.37
321.45	1783.57
321.676	1875.37
321.901	1907.37
322.127	1825.97
322.352	1861.97
322.578	1838.37
322.803	1860.57
323.029	1853.17
323.254	1874.77
323.479	1872.77
323.705	1865.97
323.93	1863.17
324.155	1880.97
324.381	1869.57
324.606	1890.57
324.831	1904.57
325.057	1884.17
325.282	1908.57
325.507	1904.37
325.732	1899.77
325.958	1962.37
326.183	1922.17
326.408	1941.37
326.633	1944.77
326.858	1954.77
327.084	1934.77
327.309	1957.57
327.534	1949.77
327.759	2011.97
327.984	2001.37
328.209	1987.97
328.434	1987.57
328.659	2016.97
328.884	2026.17
329.109	2052.57
329.334	2018.77
329.559	2067.77
329.784	2071.97
330.009	2105.77
330.234	2039.77
330.459	2088.37
330.684	2085.17
330.909	2107.37
331.134	2104.17
331.359	2115.17
331.584	2118.17
331.809	2156.97
332.034	2151.17
332.259	2168.97
332.483	2148.57
332.708	2211.77
332.933	2178.57
333.158	2192.37
333.383	2205.57
333.607	2225.77
333.832	2284.77
334.057	2271.77
334.282	2257.37
334.506	2307.97
334.731	2340.37
334.956	2294.17
335.18	2294.97
335.405	2337.97
335.63	2383.37
335.854	2368.97
336.079	2430.97
336.303	2373.17
336.528	2385.97
336.753	2411.77
336.977	2473.77
337.202	2458.97
337.426	2481.97
337.651	2495.77
337.875	2502.37
338.1	2518.77
338.324	2517.57
338.549	2547.17
338.773	2550.57
338.997	2597.37
339.222	2589.17
339.446	2658.17
339.671	2640.77
339.895	2658.37
340.119	2677.77
340.344	2675.97
340.568	2720.17
340.792	2730.97
341.017	2747.57
341.241	2762.77
341.465	2824.77
341.689	2852.17
341.914	2818.97
342.138	2844.17
342.362	2865.37
342.586	2885.37
342.811	2872.77
343.035	2916.17
343.259	2925.77
343.483	2964.17
343.707	2961.97
343.931	2996.57
344.155	3036.17
344.38	3000.17
344.604	3072.97
344.828	3090.17
345.052	3219.57
345.276	3115.77
345.5	3147.57
345.724	3183.57
345.948	3190.17
346.172	3220.77
346.396	3223.37
346.62	3205.57
346.844	3266.37
347.068	3319.97
347.292	3342.97
347.515	3327.97
347.739	3546.17
347.963	3402.17
348.187	3396.97
348.411	3480.37
348.635	3456.17
348.859	3731.97
349.082	3494.77
349.306	3544.77
349.53	3537.97
349.754	3567.17
349.977	3572.17
350.201	3620.37
350.425	3603.77
350.649	3655.57
350.872	3711.77
351.096	3646.17
351.32	3706.17
351.543	3783.97
351.767	3770.97
351.99	3853.37
352.214	3832.17
352.438	3884.37
352.661	3839.57
352.885	3887.37
353.108	3884.57
353.332	3923.37
353.555	3955.77
353.779	3954.37
354.002	4013.17
354.226	4065.17
354.449	4053.77
354.673	4084.17
354.896	4104.77
355.12	4132.17
355.343	4154.57
355.566	4132.77
355.79	4197.17
356.013	4213.97
356.237	4241.57
356.46	4262.77
356.683	4292.77
356.907	4307.97
357.13	4329.17
357.353	4361.37
357.576	4367.57
357.8	4373.37
358.023	4455.57
358.246	4440.17
358.469	4507.77
358.693	4522.57
358.916	4524.77
359.139	4493.97
359.362	4534.77
359.585	4602.97
359.808	4614.57
360.031	4619.37
360.255	4644.17
360.478	4676.57
360.701	4672.17
360.924	4726.17
361.147	4721.17
361.37	4822.77
361.593	4809.17
361.816	4850.97
362.039	4862.17
362.262	4879.77
362.485	4894.37
362.708	5008.57
362.931	5002.17
363.154	4967.17
363.377	5031.37
363.599	5026.77
363.822	5039.57
364.045	5060.97
364.268	5068.77
364.491	5096.17
364.714	5119.77
364.936	5182.37
365.159	5188.97
365.382	5233.57
365.605	5220.77
365.828	5267.77
366.05	5308.77
366.273	5311.37
366.496	5330.17
366.718	5362.97
366.941	5746.57
367.164	5412.77
367.386	5498.37
367.609	5453.97
367.832	5528.57
368.054	5555.57
368.277	5594.37
368.5	5567.17
368.722	5609.57
368.945	5616.57
369.167	5622.77
369.39	5715.17
369.612	5662.37
369.835	5758.37
370.057	5763.57
370.28	5773.17
370.502	5785.97
370.725	5853.17
370.947	5915.17
371.169	5974.37
371.392	5921.57
371.614	5949.57
371.837	5952.17
372.059	5984.57
372.281	6026.17
372.504	6070.37
372.726	6066.97
372.948	6095.97
373.171	6075.77
373.393	6190.57
373.615	6222.37
373.837	6215.37
374.06	6233.57
374.282	6265.77
374.504	6285.57
374.726	6284.57
374.948	6364.57
375.17	6338.97
375.393	6376.37
375.615	6399.57
375.837	6382.97
376.059	6512.77
376.281	6559.77
376.503	6599.57
376.725	6589.97
376.947	6599.97
377.169	6668.37
377.391	6680.17
377.613	6674.17
377.835	6684.17
378.057	6728.17
378.279	6779.17
378.501	6776.17
378.723	6922.97
378.945	6914.77
379.167	6906.17
379.389	6941.37
379.611	6997.57
379.833	6999.97
380.054	7047.77
380.276	7052.57
380.498	7049.57
380.72	7162.97
380.942	7166.37
381.163	7233.77
381.385	7279.97
381.607	7238.37
381.829	7318.77
382.05	7337.77
382.272	7469.17
382.494	7490.97
382.716	7519.37
382.937	7522.17
383.159	7514.17
383.381	7535.17
383.602	7603.77
383.824	7599.97
384.045	7663.77
384.267	7711.57
384.488	7712.17
384.71	7781.17
384.932	7856.17
385.153	7829.37
385.375	7890.37
385.596	7945.37
385.818	7954.57
386.039	8025.77
386.261	8010.37
386.482	8090.77
386.703	8108.17
386.925	8171.57
387.146	8184.17
387.368	8262.17
387.589	8197.97
387.81	8276.77
388.032	8343.57
388.253	8441.97
388.474	8434.77
388.696	8521.97
388.917	8551.17
389.138	8522.77
389.359	8627.17
389.581	8608.17
389.802	8655.97
390.023	8660.77
390.244	8740.37
390.465	8796.57
390.687	8848.17
390.908	8911.37
391.129	8963.57
391.35	8937.77
391.571	8980.17
391.792	9004.37
392.013	9017.17
392.234	9205.17
392.455	9136.97
392.677	9160.77
392.898	9228.97
393.119	9222.17
393.34	9275.57
393.561	9427.37
393.782	9379.37
394.003	9479.77
394.223	9485.57
394.444	9473.37
394.665	9525.77
394.886	9580.77
395.107	9602.17
395.328	9640.97
395.549	9672.17
395.77	9796.17
395.99	9856.37
396.211	9872.37
396.432	9870.17
396.653	9942.17
396.874	9990.57
397.094	10014.97
397.315	10069.97
397.536	10114.57
397.757	10176.97
397.977	10212.77
398.198	10188.77
398.419	10284.17
398.639	10350.17
398.86	10383.77
399.081	10380.57
399.301	10430.97
399.522	10481.77
399.742	10506.57
399.963	10588.57
400.184	10623.57
400.404	10650.17
400.625	10671.17
400.845	10744.97
401.066	10788.37
401.286	10821.57
401.507	10801.97
401.727	10914.37
401.948	10991.97
402.168	10924.37
402.388	11070.77
402.609	11070.17
402.829	11135.37
403.05	11177.57
403.27	11180.97
403.49	11245.77
403.711	11334.57
403.931	11337.77
404.151	11358.37
404.372	11342.77
404.592	11439.77
404.812	11497.77
405.032	11627.37
405.253	11593.97
405.473	11592.37
405.693	11668.37
405.913	11738.97
406.133	11722.17
406.353	11725.17
406.574	11885.37
406.794	11982.77
407.014	11950.77
407.234	11945.57
407.454	12422.17
407.674	12089.57
407.894	12114.37
408.114	12146.77
408.334	12091.77
408.554	12133.77
408.774	12205.57
408.994	12290.17
409.214	12345.37
409.434	12341.17
409.654	12421.57
409.874	12407.17
410.094	12500.77
410.314	12501.17
410.534	12581.37
410.754	12721.97
410.974	12686.17
411.193	12770.97
411.413	12778.17
411.633	12756.57
411.853	12844.17
412.073	12828.97
412.292	12904.77
412.512	12941.97
412.732	12955.17
412.952	13017.17
413.171	12995.57
413.391	13060.37
413.611	13160.37
413.831	13232.37
414.05	13263.17
414.27	13222.77
414.489	13298.57
414.709	13369.57
414.929	13434.97
415.148	13509.97
415.368	13545.37
415.587	13613.97
415.807	13584.37
416.026	13658.97
416.246	13648.37
416.465	13746.77
416.685	13784.17
416.904	13779.97
417.124	13891.57
417.343	13895.77
417.563	13951.17
417.782	14006.57
418.002	14066.57
418.221	14080.77
418.44	14198.57
418.66	14178.97
418.879	14224.37
419.098	14418.57
419.318	14297.97
419.537	14383.77
419.756	14500.57
419.976	14530.57
420.195	14486.17
420.414	14543.57
420.633	14594.57
420.853	14670.57
421.072	14617.37
421.291	14708.57
421.51	14741.57
421.729	14747.57
421.948	14831.57
422.168	14833.77
422.387	15045.37
422.606	14998.57
422.825	15026.37
423.044	15088.37
423.263	15149.77
423.482	15197.77
423.701	15194.97
423.92	15245.57
424.139	15314.37
424.358	15410.77
424.577	15365.37
424.796	15410.17
425.015	15530.97
425.234	15532.17
425.453	15538.57
425.672	15671.17
425.891	15688.57
426.11	15676.17
426.328	15780.17
426.547	15794.17
426.766	15841.37
426.985	15887.17
427.204	15954.37
427.422	16028.17
427.641	16039.17
427.86	16122.77
428.079	16145.97
428.297	16214.17
428.516	16269.17
428.735	16298.57
428.954	16271.37
429.172	16328.37
429.391	16338.77
429.61	16439.17
429.828	16499.97
430.047	16567.57
430.265	16654.77
430.484	16681.77
430.703	16746.37
430.921	16795.17
431.14	16837.57
431.358	16947.17
431.577	16952.77
431.795	16937.17
432.014	17012.17
432.232	17025.37
432.451	17101.17
432.669	17020.17
432.887	17213.17
433.106	17245.37
433.324	17255.57
433.543	17333.37
433.761	17330.17
433.979	17413.97
434.198	17445.97
434.416	17542.97
434.634	17670.17
434.853	17711.17
435.071	17739.37
435.289	17800.57
435.507	17898.97
435.726	17826.37
435.944	17881.17
436.162	17887.17
436.38	17909.17
436.598	17980.17
436.817	18018.57
437.035	18172.77
437.253	18146.97
437.471	18146.17
437.689	18243.57
437.907	18213.97
438.125	18293.37
438.343	18407.77
438.561	18453.57
438.78	18508.57
438.998	18558.77
439.216	18587.57
439.434	18706.77
439.652	18762.37
439.869	18811.77
440.087	18928.37
440.305	18980.97
440.523	18988.37
440.741	19071.37
440.959	18995.77
441.177	19051.77
441.395	19156.57
441.613	19092.57
441.831	19235.57
442.048	19225.37
442.266	19329.57
442.484	19297.97
442.702	19473.57
442.919	19530.37
443.137	19542.77
443.355	19698.17
443.573	19701.97
443.79	19793.37
444.008	19823.57
444.226	19972.17
444.443	19852.57
444.661	19985.97
444.879	20063.37
445.096	20095.97
445.314	20074.37
445.532	20164.57
445.749	20198.37
445.967	20264.77
446.184	20381.97
446.402	20339.17
446.619	20448.37
446.837	20485.97
447.054	20522.57
447.272	20606.57
447.489	20616.37
447.707	20673.37
447.924	20779.57
448.141	20763.97
448.359	20850.57
448.576	20999.37
448.794	21048.37
449.011	21096.17
449.228	21229.37
449.446	21262.97
449.663	21289.37
449.88	21367.17
450.098	21457.97
450.315	21496.17
450.532	21435.17
450.749	21505.77
450.967	21544.37
451.184	21658.57
451.401	21649.97
451.618	21769.77
451.835	21802.77
452.052	21890.77
452.27	22025.37
452.487	22086.77
452.704	22180.97
452.921	22243.17
453.138	22328.77
453.355	22362.97
453.572	22363.97
453.789	22359.57
454.006	22429.77
454.223	22419.77
454.44	22432.97
454.657	22507.37
454.874	22626.97
455.091	22599.57
455.308	22607.57
455.525	22739.37
455.742	22824.37
455.959	22842.57
456.176	22956.17
456.393	23084.77
456.609	23110.97
456.826	23079.77
457.043	23166.17
457.26	23242.77
457.477	23335.37
457.693	23367.17
457.91	23433.17
458.127	23512.97
458.344	23523.97
458.56	23608.77
458.777	23546.97
458.994	23658.17
459.21	23715.17
459.427	23754.57
459.644	23760.77
459.86	23809.57
460.077	23897.37
460.294	23912.17
460.51	23936.57
460.727	23941.57
460.943	24037.77
461.16	24020.57
461.376	24072.77
461.593	24171.77
461.809	24227.57
462.026	24219.77
462.242	24323.37
462.459	24388.97
462.675	24384.17
462.892	24456.77
463.108	24429.97
463.324	24564.77
463.541	24549.17
463.757	24587.97
463.974	24677.37
464.19	24765.37
464.406	24838.17
464.623	24795.17
464.839	24855.37
465.055	24950.57
465.271	25013.77
465.488	25078.57
465.704	25146.57
465.92	25206.17
466.136	25284.17
466.353	25210.57
466.569	25304.17
466.785	25490.77
467.001	25557.97
467.217	25701.37
467.433	25727.97
467.649	25786.77
467.865	25854.77
468.082	25882.37
468.298	25961.77
468.514	26144.37
468.73	26112.57
468.946	26149.57
469.162	26245.57
469.378	26280.77
469.594	26317.97
469.81	26404.77
470.026	26517.57
470.242	26609.97
470.457	26717.57
470.673	26757.37
470.889	26803.37
471.105	26931.17
471.321	27009.77
471.537	27121.37
471.753	27208.77
471.968	27281.17
472.184	27263.77
472.4	27519.57
472.616	27537.97
472.832	27628.17
473.047	27720.17
473.263	27851.37
473.479	27948.57
473.694	28044.37
473.91	28148.97
474.126	28377.37
474.341	28361.97
474.557	28474.37
474.773	28545.37
474.988	28574.37
475.204	28677.57
475.42	28613.97
475.635	28718.77
475.851	28723.97
476.066	28902.37
476.282	28969.57
476.497	29077.77
476.713	29204.57
476.928	29152.77
477.144	29243.57
477.359	29433.37
477.575	29523.97
477.79	29712.77
478.005	29834.17
478.221	29948.97
478.436	29971.57
478.651	29976.97
478.867	30030.37
479.082	30166.97
479.297	30086.37
479.513	30183.97
479.728	30339.77
479.943	30350.57
480.159	30439.57
480.374	30502.97
480.589	30514.77
480.804	30622.17
481.019	30519.77
481.235	30883.37
481.45	30951.17
481.665	30985.37
481.88	31132.57
482.095	31087.77
482.31	31156.77
482.525	31207.77
482.741	31292.57
482.956	31371.97
483.171	31414.97
483.386	31534.77
483.601	31513.97
483.816	31496.17
484.031	31569.77
484.246	31690.37
484.461	31797.37
484.676	31859.97
484.891	31865.77
485.105	31908.57
485.32	32010.17
485.535	32047.77
485.75	32231.97
485.965	32412.37
486.18	32331.77
486.395	32362.37
486.609	32329.97
486.824	32469.17
487.039	32495.57
487.254	32558.97
487.469	32545.57
487.683	32609.57
487.898	32632.97
488.113	32772.17
488.327	32777.97
488.542	32895.57
488.757	32977.17
488.972	32956.17
489.186	33099.57
489.401	33083.97
489.615	33154.77
489.83	33083.77
490.045	33190.97
490.259	33204.77
490.474	33196.57
490.688	33307.57
490.903	33143.37
491.117	33296.37
491.332	33251.97
491.546	33262.77
491.761	33429.17
491.975	33394.17
492.19	33435.57
492.404	33515.97
492.618	33745.17
492.833	33580.77
493.047	33694.97
493.262	33669.37
493.476	33866.97
493.69	33798.97
493.905	33834.57
494.119	33865.97
494.333	33801.97
494.547	33859.57
494.762	33853.57
494.976	33946.17
495.19	33995.17
495.404	33969.17
495.619	34053.17
495.833	34035.77
496.047	34110.57
496.261	34065.97
496.475	34078.57
496.689	34288.37
496.903	34321.77
497.117	34321.97
497.332	34308.37
497.546	34242.37
497.76	34114.77
497.974	34254.37
498.188	34081.37
498.402	33939.57
498.616	33955.37
498.83	33913.57
499.044	33878.57
499.258	33784.97
499.472	33810.77
499.685	33772.77
499.899	33715.77
500.113	33843.57
500.327	33918.57
500.541	33796.97
500.755	33827.57
500.969	33789.57
501.183	33702.17
501.396	33683.97
501.61	33741.77
501.824	33701.77
502.038	33747.57
502.251	33825.57
502.465	33834.97
502.679	33854.57
502.892	33797.57
503.106	33735.37
503.32	33943.17
503.533	34036.57
503.747	33914.17
503.961	33922.97
504.174	33836.37
504.388	33940.97
504.602	33902.57
504.815	33962.57
505.029	33960.17
505.242	34038.37
505.456	34118.37
505.669	34134.17
505.883	34129.77
506.096	34135.77
506.31	34199.37
506.523	34259.37
506.736	34277.37
506.95	34257.77
507.163	34396.77
507.377	34413.97
507.59	34530.17
507.803	34615.97
508.017	34834.17
508.23	34715.37
508.443	34776.57
508.657	34810.57
508.87	34899.17
509.083	34851.97
509.296	34886.77
509.51	35042.97
509.723	35094.57
509.936	35105.57
510.149	35170.57
510.363	35344.37
510.576	35522.77
510.789	35578.77
511.002	35701.57
511.215	35717.57
511.428	35757.97
511.641	35989.97
511.854	35887.17
512.067	35952.77
512.28	36012.37
512.493	36031.97
512.707	36222.77
512.92	36295.97
513.132	36505.37
513.345	37314.97
513.558	36717.37
513.771	36682.17
513.984	36835.97
514.197	37029.37
514.41	37060.17
514.623	37234.77
514.836	37320.17
515.049	37514.17
515.262	37587.97
515.474	37726.37
515.687	37797.17
515.9	37887.37
516.113	38053.17
516.325	38145.37
516.538	37997.57
516.751	38192.17
516.964	38118.57
517.176	38177.97
517.389	38279.77
517.602	38276.57
517.814	38478.77
518.027	38440.17
518.24	38425.97
518.452	38572.17
518.665	38609.17
518.877	38838.57
519.09	38904.77
519.303	38841.97
519.515	38938.37
519.728	39028.77
519.94	39021.57
520.153	39235.97
520.365	39100.57
520.578	39225.97
520.79	39361.57
521.002	39463.97
521.215	39399.77
521.427	39356.97
521.64	39349.37
521.852	39270.77
522.064	39420.37
522.277	39436.97
522.489	39558.97
522.701	39480.57
522.914	39548.97
523.126	39564.57
523.338	39674.57
523.551	39763.97
523.763	39614.97
523.975	39745.57
524.187	39659.17
524.399	39701.57
524.612	39713.37
524.824	39651.77
525.036	39622.97
525.248	39644.77
525.46	39645.17
525.672	39690.57
525.884	39618.57
526.096	39875.97
526.308	39876.57
526.521	39920.57
526.733	39950.17
526.945	39784.77
527.157	39712.97
527.369	39783.17
527.581	39731.57
527.793	39849.37
528.004	39790.77
528.216	39855.17
528.428	39958.17
528.64	40001.17
528.852	39818.77
529.064	39804.57
529.276	39719.17
529.488	39931.17
529.699	39863.17
529.911	39943.37
530.123	39847.57
530.335	39833.57
530.547	39827.97
530.758	39717.97
530.97	39753.37
531.182	39850.37
531.393	39802.37
531.605	39806.57
531.817	39827.57
532.029	39837.37
532.24	39853.17
532.452	39968.77
532.663	39873.17
532.875	39848.57
533.087	39818.77
533.298	39803.37
533.51	39842.17
533.721	39771.77
533.933	39764.77
534.144	39719.37
534.356	39780.17
534.567	39838.17
534.779	39769.37
534.99	39797.57
535.202	39987.17
535.413	39786.77
535.624	39780.57
535.836	39676.17
536.047	39613.57
536.259	39724.17
536.47	39579.37
536.681	39721.37
536.893	39693.77
537.104	39507.57
537.315	39581.37
537.526	39537.97
537.738	39426.37
537.949	39351.37
538.16	39354.97
538.371	39444.77
538.582	39414.77
538.794	39423.77
539.005	39431.17
539.216	39498.97
539.427	39461.17
539.638	39872.97
539.849	39469.77
540.06	39545.57
540.272	39562.37
540.483	39583.37
540.694	39518.37
540.905	39363.57
541.116	39303.77
541.327	39284.57
541.538	39311.97
541.749	39336.97
541.96	39379.77
542.17	39209.77
542.381	39245.97
542.592	39178.77
542.803	39179.77
543.014	39281.17
543.225	39218.77
543.436	39172.77
543.647	39185.17
543.857	39127.17
544.068	39039.17
544.279	39065.97
544.49	38892.37
544.701	38958.97
544.911	38880.37
545.122	38888.17
545.333	38888.17
545.543	38965.97
545.754	38993.97
545.965	39068.57
546.175	39105.77
546.386	39095.97
546.597	39180.17
546.807	39081.77
547.018	39102.77
547.229	39023.77
547.439	39105.77
547.65	39002.37
547.86	38913.77
548.071	38774.37
548.281	38847.37
548.492	38777.37
548.702	38792.37
548.913	38725.37
549.123	38589.37
549.333	38559.57
549.544	38551.97
549.754	38509.97
549.965	38621.57
550.175	38603.37
550.385	38624.57
550.596	38687.57
550.806	38666.57
551.016	38750.97
551.227	38560.17
551.437	38733.97
551.647	38621.97
551.857	38561.57
552.068	38502.17
552.278	38365.77
552.488	38302.57
552.698	38254.37
552.908	38217.77
553.119	38337.97
553.329	38300.17
553.539	38334.97
553.749	38243.77
553.959	38243.17
554.169	38346.97
554.379	38417.77
554.589	38356.57
554.799	38342.97
555.009	38339.77
555.219	38286.97
555.429	38251.97
555.639	38237.57
555.849	38180.77
556.059	38044.37
556.269	37973.57
556.479	38064.97
556.689	37902.37
556.899	37960.17
557.109	37917.17
557.319	37943.97
557.528	37916.37
557.738	37840.17
557.948	37982.37
558.158	37849.97
558.368	37780.77
558.577	37811.97
558.787	37671.37
558.997	37712.37
559.207	37619.37
559.416	37640.17
559.626	37632.97
559.836	37618.97
560.045	37427.97
560.255	37385.97
560.465	37532.77
560.674	37520.77
560.884	37602.37
561.093	37539.17
561.303	37691.77
561.512	37482.77
561.722	37439.57
561.932	37287.17
562.141	37327.17
562.351	37335.57
562.56	37336.37
562.769	37320.17
562.979	37257.97
563.188	37373.37
563.398	37263.97
563.607	37158.97
563.817	37086.17
564.026	37054.57
564.235	37169.17
564.445	36903.97
564.654	37043.77
564.863	37045.97
565.073	36905.77
565.282	37024.17
565.491	36861.17
565.7	36888.97
565.91	36792.17
566.119	36798.17
566.328	36890.97
566.537	36654.57
566.746	36770.57
566.956	36744.37
567.165	36699.37
567.374	36663.97
567.583	36500.37
567.792	36571.37
568.001	36581.97
568.21	36525.37
568.419	36420.17
568.628	36326.57
568.837	36404.37
569.046	36368.57
569.255	36351.97
569.464	36401.37
569.673	36230.37
569.882	36136.17
570.091	36190.17
570.3	36103.57
570.509	35925.37
570.718	35879.97
570.927	35915.77
571.135	35895.17
571.344	35935.77
571.553	36018.97
571.762	35958.77
571.971	36029.17
572.18	36020.97
572.388	35917.97
572.597	35890.97
572.806	35812.17
573.014	35845.77
573.223	35669.17
573.432	35582.37
573.641	35654.57
573.849	35661.97
574.058	35590.17
574.266	35474.97
574.475	35414.77
574.684	35472.57
574.892	35261.17
575.101	35252.77
575.309	35241.97
575.518	35276.77
575.726	35208.57
575.935	35284.17
576.143	35250.17
576.352	35147.17
576.56	35135.97
576.769	35223.97
576.977	35177.77
577.186	35092.17
577.394	35038.17
577.602	34969.97
577.811	35010.57
578.019	34936.77
578.228	34934.77
578.436	35014.57
578.644	34912.37
578.852	34919.57
579.061	34742.57
579.269	34701.77
579.477	34630.57
579.685	34609.37
579.894	34634.77
580.102	34492.77
580.31	34498.97
580.518	34411.37
580.726	34474.97
580.935	34461.57
581.143	34479.77
581.351	34503.17
581.559	34365.57
581.767	34255.37
581.975	34145.17
582.183	34053.97
582.391	34100.77
582.599	33973.97
582.807	34053.77
583.015	33960.37
583.223	33896.37
583.431	33797.77
583.639	33591.17
583.847	33501.77
584.055	33425.97
584.263	33434.57
584.471	33271.17
584.678	33237.17
584.886	33158.17
585.094	33196.17
585.302	33029.97
585.51	33026.17
585.718	32852.97
585.925	32914.97
586.133	32691.97
586.341	32735.17
586.549	32798.37
586.756	32709.77
586.964	32664.97
587.172	32518.97
587.379	32572.57
587.587	32512.37
587.795	32424.77
588.002	32358.17
588.21	32287.57
588.417	32201.77
588.625	32253.77
588.833	32096.77
589.04	32206.77
589.248	32601.17
589.455	32099.17
589.663	32090.17
589.87	32199.37
590.078	31987.37
590.285	32020.17
590.492	31839.77
590.7	31875.77
590.907	31798.77
591.115	31680.17
591.322	31455.17
591.529	31619.57
591.737	31594.77
591.944	31605.57
592.151	31586.37
592.359	31502.97
592.566	31522.37
592.773	31445.17
592.981	31504.17
593.188	31345.37
593.395	31260.37
593.602	31311.57
593.809	31249.77
594.017	31243.97
594.224	31228.57
594.431	31272.17
594.638	31364.97
594.845	31224.17
595.052	31165.37
595.259	31157.57
595.466	31175.77
595.673	30997.77
595.88	31004.17
596.088	30969.37
596.295	30929.77
596.502	30708.37
596.709	30706.17
596.915	30730.77
597.122	30746.57
597.329	30796.57
597.536	30678.57
597.743	30619.17
597.95	30536.97
598.157	30479.37
598.364	30443.97
598.571	30513.37
598.777	30362.77
598.984	30352.57
599.191	30196.57
599.398	30176.57
599.605	30019.97
599.811	30086.37
600.018	30069.17
600.225	29989.77
600.431	29918.37
600.638	29904.57
600.845	29756.37
601.052	29756.37
601.258	29720.97
601.465	29758.37
601.671	29844.57
601.878	29893.37
602.085	29864.37
602.291	29732.37
602.498	29719.77
602.704	29479.37
602.911	29275.37
603.117	28997.97
603.324	28782.57
603.53	28572.97
603.737	28209.17
603.943	27977.77
604.15	27563.97
604.356	27278.17
604.562	27059.57
604.769	26858.97
604.975	26663.57
605.181	26296.37
605.388	26329.17
605.594	25845.77
605.8	25662.97
606.007	25327.17
606.213	25101.17
606.419	24868.77
606.625	24611.37
606.832	24361.77
607.038	24085.37
607.244	23910.17
607.45	23645.37
607.656	23441.37
607.863	23115.37
608.069	22898.17
608.275	22614.37
608.481	22391.37
608.687	22121.57
608.893	21834.37
609.099	21591.17
609.305	21444.77
609.511	21115.97
609.717	20865.37
609.923	20508.57
610.129	20259.97
610.335	19905.77
610.541	19638.57
610.747	19492.77
610.953	19179.57
611.159	19026.57
611.365	18746.37
611.571	18542.57
611.776	18311.57
611.982	17993.77
612.188	17721.77
612.394	17429.57
612.6	17135.17
612.806	16747.17
613.011	16507.57
613.217	16288.77
613.423	15920.77
613.628	15668.37
613.834	15407.57
614.04	15200.97
614.246	14863.17
614.451	14647.57
614.657	14397.37
614.862	14233.57
615.068	13992.57
615.274	13819.57
615.479	13678.17
615.685	13454.77
615.89	13205.37
616.096	12955.37
616.301	12758.97
616.507	12601.77
616.712	12407.37
616.918	12242.17
617.123	12039.77
617.329	11742.17
617.534	11556.77
617.74	11235.77
617.945	11035.97
618.15	10804.37
618.356	10541.17
618.561	10241.37
618.766	9992.57
618.972	9682.37
619.177	9344.37
619.382	7365.17
619.588	2940.37
619.793	723.97
619.998	-13.63
620.203	-0.23
620.408	-5.23
620.614	-3.23
