Data from baseline_MAYP1115451__0__10-12-48-150.txt Node

Date: Wed Jun 12 10:12:48 MDT 2024
User: Modes Lab
Spectrometer: MAYP111545
Trigger mode: 0
Integration Time (sec): 8.000000E-3
Scans to average: 5
Electric dark correction enabled: true
Nonlinearity correction enabled: false
Boxcar width: 5
XAxis mode: Wavelengths
Number of Pixels in Spectrum: 2068
>>>>>Begin Spectral Data<<<<<
165.214	162.27
165.449	160.79
165.683	169.43
165.918	177.52
166.152	183.56
166.387	187.86
166.621	119.59
166.856	156.45
167.09	174.26
167.325	197.46
167.559	213.59
167.794	227.35
168.028	234.57
168.263	235.63
168.497	235.46
168.732	235.85
168.966	236.61
169.2	237.1
169.435	239.03
169.669	239.74
169.903	240.26
170.138	241.03
170.372	241.83
170.606	243.28
170.841	244.05
171.075	245.17
171.309	246.21
171.544	247.25
171.778	249.08
172.012	250.65
172.246	252.46
172.48	254.21
172.715	256.79
172.949	258.65
173.183	261.14
173.417	262.12
173.651	263.3
173.885	264.43
174.119	265.85
174.354	265.25
174.588	264.83
174.822	265.14
175.056	264.39
175.29	263.32
175.524	263.12
175.758	262.35
175.992	263.39
176.226	263.57
176.46	264.7
176.694	264.86
176.928	266.45
177.162	268.12
177.396	267.83
177.63	269.48
177.864	270.75
178.097	271.61
178.331	272.26
178.565	272.61
178.799	272.9
179.033	272.52
179.267	272.94
179.5	273.61
179.734	273.21
179.968	274.52
180.202	274.46
180.436	275.3
180.669	276.03
180.903	276.85
181.137	277.48
181.371	278.65
181.604	279.41
181.838	281.66
182.072	281.97
182.305	283.1
182.539	283.88
182.772	285.15
183.006	286.81
183.24	287.41
183.473	290.88
183.707	292.05
183.94	292.52
184.174	293.99
184.408	294.63
184.641	296.52
184.875	297.83
185.108	298.94
185.342	300.06
185.575	300.17
185.808	300.85
186.042	299.32
186.275	300.7
186.509	303.19
186.742	303.97
186.976	304.35
187.209	305.74
187.442	306.68
187.676	307.77
187.909	309.03
188.142	310.35
188.376	311.85
188.609	313.52
188.842	314.32
189.076	314.39
189.309	315.34
189.542	316.95
189.775	317.37
190.009	319.57
190.242	322.32
190.475	322.83
190.708	325.34
190.941	328.06
191.174	330.01
191.408	331.7
191.641	334.45
191.874	336.66
192.107	338.03
192.34	339.86
192.573	340.83
192.806	341.1
193.039	343.14
193.272	344.41
193.505	345.74
193.738	347.21
193.971	348.7
194.204	349.41
194.437	350.81
194.67	352.52
194.903	354.14
195.136	355.55
195.369	357.72
195.602	358.99
195.835	360.52
196.068	362.01
196.301	362.81
196.533	363.9
196.766	365.7
196.999	368.17
197.232	369.5
197.465	370.81
197.698	373.14
197.93	375.37
198.163	377.25
198.396	378.95
198.629	380.45
198.861	382.12
199.094	383.63
199.327	385.25
199.559	386.21
199.792	388.77
200.025	390.88
200.257	393.05
200.49	394.03
200.723	396.21
200.955	398.12
201.188	399.26
201.42	401.79
201.653	404.72
201.886	406.54
202.118	408.41
202.351	410.01
202.583	412.46
202.816	413.86
203.048	417.12
203.281	418.97
203.513	421.26
203.745	424.92
203.978	426.39
204.21	429.21
204.443	430.81
204.675	433.86
204.907	435.45
205.14	436.7
205.372	438.81
205.605	439.9
205.837	442.37
206.069	442.86
206.302	443.35
206.534	445.19
206.766	446.45
206.998	449.68
207.231	450.9
207.463	453.86
207.695	456.48
207.927	458.25
208.159	460.59
208.392	461.46
208.624	465.37
208.856	467.46
209.088	470.66
209.32	473.1
209.552	473.72
209.784	475.25
210.017	475.81
210.249	477.63
210.481	479.21
210.713	480.28
210.945	483.03
211.177	483.48
211.409	486.39
211.641	487.52
211.873	488.25
212.105	490.12
212.337	492.46
212.569	494.75
212.801	496.52
213.033	499.21
213.264	501.57
213.496	504.57
213.728	506.26
213.96	506.77
214.192	506.88
214.424	509.94
214.656	513.19
214.887	514.85
215.119	517.7
215.351	519.54
215.583	520.81
215.815	524.03
216.046	524.1
216.278	526.05
216.51	529.08
216.741	531.65
216.973	532.28
217.205	533.34
217.436	533.59
217.668	534.79
217.9	535.32
218.131	536.54
218.363	537.14
218.595	538.79
218.826	539.34
219.058	539.83
219.289	540.77
219.521	541.41
219.752	542.63
219.984	545.03
220.215	545.7
220.447	546.39
220.678	547.05
220.91	546.92
221.141	546.88
221.373	549.66
221.604	550.05
221.836	552.39
222.067	553.46
222.298	554.12
222.53	554.79
222.761	556.03
222.993	558.12
223.224	560.34
223.455	562.65
223.686	564.05
223.918	563.1
224.149	564.48
224.38	564.34
224.612	565.65
224.843	565.86
225.074	566.68
225.305	568.15
225.536	568.32
225.768	568.15
225.999	567.32
226.23	567.94
226.461	568.46
226.692	568.35
226.923	568.72
227.155	569.88
227.386	569.68
227.617	570.54
227.848	570.03
228.079	571.59
228.31	572.19
228.541	572.97
228.772	574.19
229.003	574.88
229.234	576.57
229.465	576.83
229.696	575.95
229.927	577.39
230.158	577.46
230.389	577.08
230.62	576.59
230.85	576.46
231.081	576.59
231.312	576.79
231.543	577.3
231.774	576.92
232.005	578.08
232.236	578.65
232.466	578.21
232.697	578.15
232.928	578.14
233.159	578.14
233.389	578.74
233.62	578.66
233.851	578.61
234.082	578.81
234.312	579.85
234.543	579.72
234.774	579.95
235.004	580.08
235.235	580.97
235.466	580.77
235.696	580.39
235.927	580.32
236.157	579.75
236.388	579.9
236.618	580.08
236.849	578.97
237.08	579.65
237.31	579.08
237.541	578.97
237.771	578.19
238.002	578.66
238.232	578.08
238.463	577.52
238.693	577.65
238.923	578.17
239.154	577.1
239.384	576.81
239.615	575.77
239.845	575.43
240.075	575.26
240.306	575.65
240.536	574.45
240.766	575.14
240.997	574.08
241.227	574.3
241.457	572.28
241.687	572.08
241.918	570.54
242.148	570.03
242.378	570.15
242.608	569.54
242.839	568.17
243.069	568.92
243.299	568.32
243.529	570.74
243.759	570.37
243.989	570.12
244.22	569.7
244.45	569.85
244.68	569.37
244.91	569.19
245.14	568.75
245.37	569.66
245.6	569.08
245.83	568.32
246.06	566.77
246.29	566.5
246.52	567.05
246.75	566.99
246.98	566.86
247.21	565.86
247.44	564.79
247.67	564.35
247.9	563.32
248.13	562.86
248.359	563.25
248.589	561.26
248.819	561.21
249.049	560.1
249.279	560.26
249.509	559.88
249.738	560.23
249.968	559.23
250.198	560.26
250.428	559.61
250.657	559.03
250.887	558.59
251.117	558.86
251.347	557.3
251.576	557.06
251.806	555.7
252.036	554.85
252.265	553.37
252.495	553.15
252.725	551.12
252.954	550.97
253.184	550.06
253.413	549.15
253.643	548.61
253.873	547.17
254.102	547.68
254.332	547.66
254.561	548.23
254.791	548.95
255.02	549.74
255.25	550.01
255.479	548.03
255.708	548.35
255.938	547.9
256.167	546.25
256.397	546.65
256.626	545.03
256.856	544.66
257.085	544.17
257.314	542.72
257.544	541.68
257.773	541.39
258.002	541.15
258.232	541.37
258.461	541.23
258.69	541.79
258.919	541.86
259.149	541.45
259.378	540.05
259.607	538.7
259.836	539.17
260.065	538.52
260.295	538.03
260.524	537.63
260.753	535.54
260.982	534.46
261.211	534.25
261.44	532.21
261.669	531.35
261.899	530.5
262.128	529.03
262.357	527.54
262.586	526.48
262.815	525.46
263.044	525.17
263.273	528.14
263.502	527.74
263.731	526.79
263.96	526.85
264.189	525.77
264.418	525.74
264.646	525.99
264.875	525.83
265.104	524.41
265.333	524.05
265.562	522.46
265.791	518.61
266.02	517.23
266.249	515.66
266.477	515.3
266.706	513.52
266.935	512.88
267.164	513.3
267.393	512.14
267.621	513.25
267.85	511.55
268.079	511.54
268.307	509.88
268.536	508.48
268.765	508.05
268.993	507.83
269.222	508.83
269.451	507.85
269.679	506.59
269.908	506.28
270.137	504.5
270.365	504.68
270.594	503.94
270.822	505.08
271.051	505.66
271.279	505.25
271.508	505.1
271.736	505.63
271.965	507.06
272.193	507.28
272.422	508.12
272.65	509.7
272.879	510.15
273.107	510.14
273.336	509.19
273.564	509.19
273.792	507.99
274.021	506.9
274.249	505.75
274.477	504.79
274.706	503.26
274.934	501.59
275.162	498.9
275.391	497.17
275.619	496.39
275.847	495.63
276.075	495.12
276.304	496.25
276.532	495.12
276.76	493.97
276.988	491.74
277.216	491.55
277.445	489.94
277.673	488.01
277.901	486.92
278.129	486.05
278.357	484.81
278.585	483.63
278.813	481.19
279.041	480.99
279.269	480.35
279.497	480.74
279.725	478.72
279.954	479.28
280.182	479.55
280.41	479.17
280.637	478.81
280.865	479.68
281.093	479.59
281.321	481.08
281.549	480.06
281.777	479.59
282.005	478.68
282.233	480.54
282.461	479.12
282.689	479.54
282.916	479.81
283.144	479.23
283.372	478.5
283.6	477.74
283.828	476.81
284.055	476.45
284.283	476.83
284.511	475.57
284.739	473.35
284.966	474.19
285.194	473.97
285.422	473.14
285.649	473.41
285.877	472.03
286.105	472.74
286.332	472.12
286.56	472.9
286.788	472.17
287.015	472.79
287.243	473.48
287.47	471.88
287.698	471.74
287.925	471.95
288.153	471.39
288.381	470.79
288.608	468.83
288.836	468.35
289.063	466.54
289.29	465.74
289.518	466.01
289.745	464.94
289.973	464.88
290.2	464.26
290.428	462.75
290.655	461.32
290.882	461.1
291.11	460.65
291.337	460.35
291.564	460.17
291.792	459.05
292.019	458.06
292.246	457.9
292.473	457.81
292.701	457.37
292.928	458.12
293.155	457.94
293.382	458.65
293.61	458.57
293.837	458.12
294.064	457.75
294.291	458.01
294.518	455.68
294.745	454.7
294.972	453.88
295.2	451.94
295.427	450.03
295.654	450.83
295.881	449.85
296.108	449.45
296.335	447.99
296.562	447.15
296.789	446.32
297.016	446.81
297.243	446.01
297.47	445.77
297.697	446.35
297.924	446.75
298.151	445.15
298.378	443.99
298.604	442.77
298.831	442.17
299.058	441.65
299.285	441.15
299.512	441.86
299.739	441.15
299.966	440.01
300.192	439.9
300.419	439.57
300.646	439.97
300.873	439.34
301.099	439.54
301.326	440.77
301.553	440.99
301.78	441.08
302.006	439.66
302.233	440.57
302.46	440.15
302.686	439.28
302.913	438.21
303.14	437.01
303.366	437.01
303.593	436.46
303.819	434.66
304.046	432.97
304.272	432.48
304.499	432.92
304.725	432.39
304.952	432.46
305.179	430.72
305.405	431.37
305.631	432.05
305.858	431.32
306.084	431.72
306.311	432.7
306.537	433.17
306.764	433.03
306.99	432.85
307.216	432.48
307.443	432.68
307.669	434.17
307.895	432.81
308.122	431.54
308.348	431.95
308.574	430.55
308.801	429.65
309.027	429.55
309.253	428.23
309.479	427.32
309.706	426.59
309.932	425.46
310.158	425.12
310.384	425.65
310.61	425.74
310.837	424.95
311.063	425.46
311.289	425.3
311.515	425.88
311.741	426.92
311.967	427.05
312.193	427.21
312.419	427.88
312.645	426.79
312.871	426.14
313.097	425.83
313.323	427.28
313.549	427.83
313.775	427.74
314.001	427.86
314.227	426.52
314.453	426.83
314.679	427.1
314.905	426.85
315.131	428.35
315.357	428.14
315.583	428.65
315.809	427.77
316.034	426.95
316.26	427.81
316.486	429.01
316.712	430.65
316.938	429.94
317.163	429.86
317.389	430.45
317.615	429.77
317.841	431.35
318.066	432.03
318.292	432.03
318.518	432.43
318.743	432.54
318.969	431.41
319.195	431.92
319.42	432.63
319.646	435.17
319.872	436.28
320.097	437.54
320.323	437.59
320.548	437.94
320.774	439.77
320.999	441.63
321.225	442.9
321.45	444.88
321.676	445.97
321.901	447.25
322.127	446.55
322.352	447.61
322.578	448.61
322.803	450.3
323.029	451.05
323.254	451.83
323.479	452.37
323.705	453.61
323.93	453.45
324.155	454.72
324.381	456.45
324.606	457.83
324.831	458.9
325.057	461.39
325.282	462.68
325.507	463.88
325.732	465.57
325.958	467.06
326.183	468.54
326.408	471.03
326.633	473.15
326.858	474.88
327.084	477.41
327.309	479.41
327.534	481.68
327.759	483.99
327.984	488.3
328.209	490.3
328.434	493.03
328.659	495.63
328.884	498.52
329.109	500.15
329.334	502.46
329.559	505.97
329.784	509.1
330.009	511.48
330.234	514.25
330.459	516.43
330.684	520.19
330.909	523.5
331.134	525.59
331.359	528.55
331.584	532.59
331.809	536.99
332.034	538.45
332.259	541.99
332.483	545.15
332.708	548.74
332.933	552.28
333.158	555.19
333.383	559.21
333.607	563.15
333.832	567.68
334.057	571.97
334.282	575.3
334.506	581.01
334.731	584.06
334.956	588.81
335.18	594.46
335.405	597.94
335.63	603.43
335.854	608.45
336.079	613.66
336.303	617.68
336.528	621.14
336.753	625.52
336.977	629.94
337.202	635.48
337.426	640.66
337.651	644.19
337.875	649.34
338.1	654.61
338.324	658.48
338.549	664.15
338.773	670.86
338.997	676.92
339.222	683.43
339.446	688.25
339.671	694.15
339.895	700.41
340.119	707.57
340.344	713.55
340.568	718.95
340.792	726.26
341.017	733.05
341.241	739.26
341.465	744.32
341.689	750.19
341.914	756.63
342.138	763.52
342.362	769.92
342.586	775.85
342.811	783.39
343.035	790.66
343.259	797.32
343.483	804.1
343.707	810.41
343.931	820.59
344.155	827.17
344.38	835.03
344.604	845.01
344.828	852.48
345.052	859.74
345.276	866.63
345.5	872.97
345.724	879.61
345.948	887.59
346.172	895.9
346.396	902.3
346.62	913.94
346.844	923.03
347.068	927.77
347.292	936.92
347.515	945.74
347.739	957.7
347.963	966.97
348.187	976.05
348.411	982.37
348.635	989.92
348.859	999.7
349.082	1007.54
349.306	1014.52
349.53	1022.25
349.754	1029.25
349.977	1038.25
350.201	1043.61
350.425	1053.14
350.649	1062.52
350.872	1073.57
351.096	1083.06
351.32	1091.43
351.543	1098.86
351.767	1109.68
351.99	1120.12
352.214	1129.23
352.438	1138.05
352.661	1148.25
352.885	1157.97
353.108	1167.39
353.332	1175.65
353.555	1185.25
353.779	1194.99
354.002	1203.94
354.226	1214.52
354.449	1223.05
354.673	1234.01
354.896	1243.95
355.12	1254.85
355.343	1263.65
355.566	1274.19
355.79	1284.9
356.013	1295.72
356.237	1305.59
356.46	1315.74
356.683	1324.01
356.907	1336.48
357.13	1345.26
357.353	1354.32
357.576	1362.63
357.8	1374.54
358.023	1385.28
358.246	1396.19
358.469	1404.52
358.693	1413.65
358.916	1425.32
359.139	1435.7
359.362	1444.7
359.585	1455.68
359.808	1467.45
360.031	1482.15
360.255	1490.97
360.478	1499.57
360.701	1510.25
360.924	1521.83
361.147	1536.03
361.37	1546.37
361.593	1557.35
361.816	1570.86
362.039	1582.9
362.262	1595.72
362.485	1602.55
362.708	1613.79
362.931	1626.17
363.154	1636.32
363.377	1647.66
363.599	1657.17
363.822	1667.05
364.045	1678.46
364.268	1687.88
364.491	1700.48
364.714	1711.75
364.936	1724.41
365.159	1739.28
365.382	1751.72
365.605	1765.39
365.828	1780.95
366.05	1793.12
366.273	1807.21
366.496	1820.03
366.718	1833.54
366.941	1844.86
367.164	1856.45
367.386	1868.46
367.609	1876.52
367.832	1890.77
368.054	1902.94
368.277	1911.5
368.5	1925.06
368.722	1939.68
368.945	1953.52
369.167	1964.57
369.39	1977.9
369.612	1993.63
369.835	2009.66
370.057	2025.68
370.28	2038.08
370.502	2051.99
370.725	2067.94
370.947	2082.03
371.169	2096.61
371.392	2109.77
371.614	2124.12
371.837	2139.3
372.059	2151.63
372.281	2165.15
372.504	2179.32
372.726	2192.86
372.948	2207.85
373.171	2224.66
373.393	2237.19
373.615	2249.3
373.837	2267.14
374.06	2282.01
374.282	2295.48
374.504	2311.86
374.726	2326.52
374.948	2343.1
375.17	2359.06
375.393	2373.46
375.615	2388.79
375.837	2406.85
376.059	2423.32
376.281	2438.68
376.503	2456.86
376.725	2473.37
376.947	2489.63
377.169	2508.61
377.391	2524.12
377.613	2541.28
377.835	2561.21
378.057	2575.5
378.279	2592.39
378.501	2612.1
378.723	2630.21
378.945	2647.95
379.167	2667.21
379.389	2684.17
379.611	2701.28
379.833	2722.03
380.054	2741.26
380.276	2760.94
380.498	2779.74
380.72	2804.26
380.942	2823.03
381.163	2843.39
381.385	2865.37
381.607	2887.77
381.829	2908.19
382.05	2931.35
382.272	2952.5
382.494	2974.05
382.716	2996.57
382.937	3020.81
383.159	3037.99
383.381	3059.95
383.602	3081.68
383.824	3100.25
384.045	3120.65
384.267	3146.3
384.488	3165.05
384.71	3188.14
384.932	3210.03
385.153	3230.9
385.375	3253.66
385.596	3278.63
385.818	3300.06
386.039	3324.86
386.261	3353.19
386.482	3378.66
386.703	3401.43
386.925	3427.35
387.146	3450.85
387.368	3477.97
387.589	3502.23
387.81	3527.72
388.032	3550.37
388.253	3576.26
388.474	3600.17
388.696	3622.72
388.917	3644.03
389.138	3667.92
389.359	3694.55
389.581	3719.08
389.802	3739.95
390.023	3764.35
390.244	3787.7
390.465	3812.48
390.687	3836.25
390.908	3858.99
391.129	3885.52
391.35	3912.63
391.571	3941.68
391.792	3964.35
392.013	3994.05
392.234	4024.03
392.455	4050.05
392.677	4079.61
392.898	4104.37
393.119	4131.79
393.34	4158.95
393.561	4185.35
393.782	4215.48
394.003	4239.03
394.223	4270.32
394.444	4296.86
394.665	4325.59
394.886	4355.34
395.107	4383.57
395.328	4415.37
395.549	4445.26
395.77	4478.63
395.99	4505.34
396.211	4534.26
396.432	4562.83
396.653	4588.97
396.874	4616.79
397.094	4644.05
397.315	4671.41
397.536	4699.17
397.757	4725.65
397.977	4753.43
398.198	4782.9
398.419	4816.86
398.639	4846.95
398.86	4879.08
399.081	4910.05
399.301	4939.72
399.522	4970.88
399.742	5002.08
399.963	5031.25
400.184	5065.34
400.404	5098.63
400.625	5126.7
400.845	5153.5
401.066	5179.57
401.286	5211.55
401.507	5239.32
401.727	5266.99
401.948	5294.74
402.168	5327.39
402.388	5361.65
402.609	5392.92
402.829	5423.5
403.05	5452.79
403.27	5484.12
403.49	5513.72
403.711	5541.97
403.931	5577.48
404.151	5610.32
404.372	5643.41
404.592	5671.68
404.812	5700.72
405.032	5728.14
405.253	5758.52
405.473	5790.88
405.693	5824.43
405.913	5857.9
406.133	5893.37
406.353	5926.52
406.574	5957.5
406.794	5987.99
407.014	6019.06
407.234	6049.48
407.454	6080.79
407.674	6110.66
407.894	6139.68
408.114	6169.25
408.334	6198.92
408.554	6225.99
408.774	6254.39
408.994	6282.7
409.214	6312.88
409.434	6343.79
409.654	6372.5
409.874	6406.3
410.094	6439.39
410.314	6471.9
410.534	6503.12
410.754	6539.21
410.974	6572.7
411.193	6601.9
411.413	6639.32
411.633	6671.65
411.853	6701.72
412.073	6733.57
412.292	6761.57
412.512	6791.55
412.732	6822.88
412.952	6854.63
413.171	6880.97
413.391	6914.19
413.611	6947.12
413.831	6975.19
414.05	7010.9
414.27	7042.03
414.489	7076.21
414.709	7112.39
414.929	7152.99
415.148	7184.94
415.368	7220.23
415.587	7258.81
415.807	7289.1
416.026	7322.86
416.246	7355.3
416.465	7388.41
416.685	7428.57
416.904	7463.08
417.124	7497.55
417.343	7525.66
417.563	7561.52
417.782	7590.61
418.002	7623.43
418.221	7657.97
418.44	7690.66
418.66	7727.83
418.879	7760.86
419.098	7795.14
419.318	7828.77
419.537	7861.74
419.756	7897.77
419.976	7932.45
420.195	7968.77
420.414	7998.17
420.633	8033.15
420.853	8068.37
421.072	8098.68
421.291	8136.94
421.51	8169.08
421.729	8197.26
421.948	8230.1
422.168	8259.19
422.387	8295.45
422.606	8329.75
422.825	8366.05
423.044	8397.21
423.263	8432.52
423.482	8471.34
423.701	8504.92
423.92	8537.14
424.139	8577.75
424.358	8615.97
424.577	8652.37
424.796	8682.83
425.015	8719.34
425.234	8752.41
425.453	8787.95
425.672	8824.63
425.891	8857.39
426.11	8887.21
426.328	8923.28
426.547	8957.34
426.766	8985.48
426.985	9023.19
427.204	9060.55
427.422	9100.7
427.641	9142.45
427.86	9179.01
428.079	9212.59
428.297	9251.03
428.516	9291.17
428.735	9327.06
428.954	9364.06
429.172	9408.46
429.391	9438.81
429.61	9480.86
429.828	9517.46
430.047	9554.46
430.265	9591.54
430.484	9626.52
430.703	9665.66
430.921	9703.19
431.14	9744.92
431.358	9784.61
431.577	9820.28
431.795	9864.39
432.014	9898.41
432.232	9931.25
432.451	9969.74
432.669	10009.01
432.887	10051.19
433.106	10087.99
433.324	10125.46
433.543	10161.37
433.761	10200.34
433.979	10237.1
434.198	10280.34
434.416	10319.63
434.634	10359.81
434.853	10394.65
435.071	10428.86
435.289	10468.65
435.507	10506.88
435.726	10540.01
435.944	10579.85
436.162	10612.77
436.38	10652.03
436.598	10684.37
436.817	10720.15
437.035	10761.39
437.253	10798.55
437.471	10844.21
437.689	10878.66
437.907	10916.06
438.125	10958.35
438.343	10996.57
438.561	11040.77
438.78	11075.75
438.998	11113.46
439.216	11156.32
439.434	11191.99
439.652	11233.77
439.869	11268.26
440.087	11307.95
440.305	11349.06
440.523	11385.28
440.741	11424.75
440.959	11460.21
441.177	11502.74
441.395	11545.35
441.613	11582.03
441.831	11618.7
442.048	11657.08
442.266	11695.03
442.484	11733.3
442.702	11770.28
442.919	11813.75
443.137	11852.03
443.355	11892.63
443.573	11934.83
443.79	11972.1
444.008	12013.55
444.226	12057.3
444.443	12095.39
444.661	12139.92
444.879	12182.97
445.096	12222.85
445.314	12262.75
445.532	12304.05
445.749	12342.59
445.967	12380.63
446.184	12421.94
446.402	12453.41
446.619	12492.77
446.837	12534.86
447.054	12573.65
447.272	12613.37
447.489	12649.97
447.707	12684.85
447.924	12721.06
448.141	12759.92
448.359	12799.03
448.576	12838.28
448.794	12883.83
449.011	12923.34
449.228	12963.81
449.446	12998.75
449.663	13036.74
449.88	13081.23
450.098	13125.23
450.315	13168.08
450.532	13209.92
450.749	13252.01
450.967	13285.83
451.184	13323.15
451.401	13360.43
451.618	13399.59
451.835	13445.83
452.052	13489.43
452.27	13531.25
452.487	13570.95
452.704	13611.35
452.921	13649.95
453.138	13687.12
453.355	13731.37
453.572	13776.81
453.789	13816.28
454.006	13856.75
454.223	13893.7
454.44	13923.55
454.657	13963.72
454.874	14005.39
455.091	14040.46
455.308	14077.95
455.525	14121.5
455.742	14161.21
455.959	14196.21
456.176	14232.72
456.393	14272.72
456.609	14312.35
456.826	14359.85
457.043	14391.75
457.26	14423.45
457.477	14463.72
457.693	14509.48
457.91	14543.7
458.127	14579.06
458.344	14616.63
458.56	14657.39
458.777	14687.99
458.994	14719.26
459.21	14747.26
459.427	14776.65
459.644	14811.17
459.86	14841.1
460.077	14863.45
460.294	14889.05
460.51	14921.01
460.727	14946.23
460.943	14978.81
461.16	15010.94
461.376	15048.26
461.593	15081.15
461.809	15119.72
462.026	15154.03
462.242	15189.55
462.459	15220.5
462.675	15258.65
462.892	15290.46
463.108	15329.66
463.324	15357.94
463.541	15390.92
463.757	15414.5
463.974	15454.08
464.19	15487.12
464.406	15524.41
464.623	15558.54
464.839	15606.45
465.055	15643.77
465.271	15685.3
465.488	15722.81
465.704	15765.34
465.92	15811.77
466.136	15857.92
466.353	15895.32
466.569	15943.35
466.785	15982.57
467.001	16026.1
467.217	16069.15
467.433	16119.14
467.649	16170.52
467.865	16223.88
468.082	16271.01
468.298	16311.72
468.514	16363.99
468.73	16420.39
468.946	16473.34
469.162	16530.79
469.378	16586.9
469.594	16640.34
469.81	16689.61
470.026	16738.3
470.242	16783.39
470.457	16839.25
470.673	16902.03
470.889	16955.08
471.105	17010.21
471.321	17061.79
471.537	17115.99
471.753	17174.1
471.968	17235.95
472.184	17298.17
472.4	17361.32
472.616	17426.03
472.832	17485.12
473.047	17543.46
473.263	17608.03
473.479	17665.92
473.694	17726.54
473.91	17786.06
474.126	17845.75
474.341	17905.32
474.557	17962.86
474.773	18016.74
474.988	18071.25
475.204	18138.74
475.42	18202.61
475.635	18260.23
475.851	18318.61
476.066	18382.48
476.282	18437.46
476.497	18495.46
476.713	18551.79
476.928	18605.26
477.144	18660.81
477.359	18718.59
477.575	18763.46
477.79	18812.32
478.005	18866.39
478.221	18916.57
478.436	18961.66
478.651	19019.06
478.867	19064.06
479.082	19103.88
479.297	19156.23
479.513	19200.39
479.728	19247.23
479.943	19291.41
480.159	19334.01
480.374	19371.63
480.589	19415.23
480.804	19456.81
481.019	19493.97
481.235	19541.5
481.45	19589.17
481.665	19627.77
481.88	19677.21
482.095	19720.94
482.31	19766.23
482.525	19810.99
482.741	19862.08
482.956	19908.26
483.171	19952.81
483.386	19996.79
483.601	20035.35
483.816	20078.26
484.031	20123.48
484.246	20157.63
484.461	20193.01
484.676	20233.95
484.891	20273.19
485.105	20296.23
485.32	20334.79
485.535	20378.03
485.75	20413.79
485.965	20450.37
486.18	20483.41
486.395	20505.66
486.609	20541.1
486.824	20574.25
487.039	20603.7
487.254	20628.92
487.469	20669.77
487.683	20695.85
487.898	20718.59
488.113	20757.57
488.327	20788.99
488.542	20816.83
488.757	20857.55
488.972	20893.43
489.186	20923.19
489.401	20963.32
489.615	21000.05
489.83	21034.26
490.045	21064.55
490.259	21096.68
490.474	21115.7
490.688	21147.39
490.903	21180.66
491.117	21204.85
491.332	21231.54
491.546	21265.45
491.761	21287.1
491.975	21308.99
492.19	21337.79
492.404	21372.08
492.618	21401.15
492.833	21428.52
493.047	21452.55
493.262	21473.59
493.476	21504.01
493.69	21523.66
493.905	21549.45
494.119	21565.5
494.333	21590.43
494.547	21609.59
494.762	21626.17
494.976	21641.92
495.19	21664.99
495.404	21688.77
495.619	21710.28
495.833	21734.85
496.047	21753.15
496.261	21771.68
496.475	21794.01
496.689	21806.83
496.903	21812.32
497.117	21813.5
497.332	21818.95
497.546	21815.3
497.76	21808.86
497.974	21807.55
498.188	21793.03
498.402	21785.74
498.616	21770.66
498.83	21757.3
499.044	21757.86
499.258	21763.28
499.472	21769.75
499.685	21775.41
499.899	21785.68
500.113	21793.41
500.327	21806.05
500.541	21819.05
500.755	21838.68
500.969	21857.75
501.183	21883.77
501.396	21897.79
501.61	21912.48
501.824	21929.52
502.038	21947.1
502.251	21961.88
502.465	21980.21
502.679	21992.57
502.892	22011.94
503.106	22026.65
503.32	22047.17
503.533	22061.57
503.747	22077.77
503.961	22092.85
504.174	22114.28
504.388	22138.34
504.602	22167.63
504.815	22193.17
505.029	22225.12
505.242	22254.77
505.456	22289.37
505.669	22327.88
505.883	22367.63
506.096	22410.97
506.31	22466.52
506.523	22510.9
506.736	22554.52
506.95	22605.65
507.163	22656.15
507.377	22704.23
507.59	22757.41
507.803	22819.03
508.017	22867.15
508.23	22920.9
508.443	22982.52
508.657	23029.45
508.87	23089.95
509.083	23147.23
509.296	23205.37
509.51	23270.97
509.723	23333.72
509.936	23408.86
510.149	23470.14
510.363	23546.03
510.576	23620.77
510.789	23691.12
511.002	23773.37
511.215	23855.52
511.428	23938.97
511.641	24016.5
511.854	24102.72
512.067	24187.01
512.28	24271.39
512.493	24358.54
512.707	24443.74
512.92	24538.66
513.132	24623.83
513.345	24710.5
513.558	24797.52
513.771	24889.57
513.984	24987.06
514.197	25077.32
514.41	25173.39
514.623	25264.55
514.836	25354.85
515.049	25441.94
515.262	25523.01
515.474	25622.7
515.687	25709.52
515.9	25803.15
516.113	25895.41
516.325	25979.39
516.538	26049.37
516.751	26136.23
516.964	26211.28
517.176	26292.86
517.389	26370.3
517.602	26447.85
517.814	26513.19
518.027	26586.26
518.24	26649.43
518.452	26709.17
518.665	26778.17
518.877	26857.14
519.09	26914.9
519.303	26974.15
519.515	27031.57
519.728	27096.15
519.94	27152.63
520.153	27218.25
520.365	27276.81
520.578	27335.77
520.79	27393.15
521.002	27448.12
521.215	27503.54
521.427	27557.52
521.64	27605.85
521.852	27653.21
522.064	27702.94
522.277	27759.88
522.489	27801.48
522.701	27843.52
522.914	27889.21
523.126	27937.32
523.338	27986.17
523.551	28025.85
523.763	28073.5
523.975	28120.61
524.187	28169.05
524.399	28213.26
524.612	28250.85
524.824	28288.26
525.036	28331.46
525.248	28366.26
525.46	28394.48
525.672	28422.55
525.884	28466.15
526.096	28491.9
526.308	28519.74
526.521	28546.65
526.733	28571.85
526.945	28598.59
527.157	28636.68
527.369	28665.85
527.581	28692.94
527.793	28726.83
528.004	28748.97
528.216	28765.48
528.428	28796.32
528.64	28827.48
528.852	28861.08
529.064	28891.05
529.276	28919.79
529.488	28940.05
529.699	28974.34
529.911	29005.17
530.123	29045.05
530.335	29084.23
530.547	29115.99
530.758	29150.41
530.97	29186.83
531.182	29213.68
531.393	29245.06
531.605	29274.41
531.817	29303.14
532.029	29324.81
532.24	29356.3
532.452	29373.3
532.663	29398.05
532.875	29422.35
533.087	29440.43
533.298	29455.81
533.51	29473.74
533.721	29496.01
533.933	29516.3
534.144	29540.34
534.356	29557.41
534.567	29568.46
534.779	29589.12
534.99	29601.81
535.202	29624.26
535.413	29649.81
535.624	29671.05
535.836	29692.26
536.047	29709.43
536.259	29729.99
536.47	29745.06
536.681	29768.86
536.893	29787.15
537.104	29805.41
537.315	29828.65
537.526	29848.92
537.738	29858.43
537.949	29876.85
538.16	29899.34
538.371	29917.5
538.582	29935.94
538.794	29959.83
539.005	29981.46
539.216	30011.46
539.427	30017.35
539.638	30034.75
539.849	30045.01
540.06	30064.45
540.272	30081.14
540.483	30101.7
540.694	30118.06
540.905	30132.12
541.116	30147.23
541.327	30160.3
541.538	30174.5
541.749	30210.01
541.96	30222.37
542.17	30238.41
542.381	30255.03
542.592	30273.77
542.803	30281.77
543.014	30293.83
543.225	30301.72
543.436	30309.12
543.647	30321.46
543.857	30329.92
544.068	30333.5
544.279	30346.17
544.49	30354.32
544.701	30369.48
544.911	30382.63
545.122	30403.61
545.333	30425.28
545.543	30442.86
545.754	30454.65
545.965	30476.34
546.175	30493.03
546.386	30512.7
546.597	30544.72
546.807	30574.3
547.018	30589.25
547.229	30609.45
547.439	30620.34
547.65	30619.32
547.86	30631.94
548.071	30650.81
548.281	30644.3
548.492	30651.55
548.702	30659.12
548.913	30643.43
549.123	30647.12
549.333	30664.23
549.544	30673.46
549.754	30677.48
549.965	30705.94
550.175	30724.61
550.385	30745.65
550.596	30776.61
550.806	30801.72
551.016	30825.81
551.227	30861.12
551.437	30881.26
551.647	30890.55
551.857	30911.46
552.068	30939.41
552.278	30949.88
552.488	30965.46
552.698	30982.21
552.908	30995.45
553.119	31008.08
553.329	31017.46
553.539	31025.05
553.749	31026.46
553.959	31043.66
554.169	31052.81
554.379	31060.9
554.589	31073.9
554.799	31095.1
555.009	31105.79
555.219	31119.83
555.429	31129.41
555.639	31148.79
555.849	31166.83
556.059	31191.75
556.269	31194.68
556.479	31203.99
556.689	31210.85
556.899	31228.95
557.109	31231.65
557.319	31243.88
557.528	31252.32
557.738	31260.55
557.948	31260.9
558.158	31258.46
558.368	31254.06
558.577	31268.72
558.787	31271.7
558.997	31285.97
559.207	31291.5
559.416	31291.17
559.626	31289.55
559.836	31296.3
560.045	31308.08
560.255	31317.28
560.465	31331.81
560.674	31352.88
560.884	31366.19
561.093	31383.66
561.303	31390.9
561.512	31383.21
561.722	31404.3
561.932	31420.68
562.141	31427.77
562.351	31433.08
562.56	31442.41
562.769	31458.55
562.979	31464.92
563.188	31466.05
563.398	31474.86
563.607	31486.9
563.817	31507.32
564.026	31522.32
564.235	31529.03
564.445	31546.25
564.654	31555.99
564.863	31568.43
565.073	31580.01
565.282	31595.95
565.491	31613.34
565.7	31614.59
565.91	31628.61
566.119	31640.63
566.328	31644.7
566.537	31654.54
566.746	31661.61
566.956	31665.81
567.165	31670.83
567.374	31668.92
567.583	31669.08
567.792	31667.77
568.001	31672.25
568.21	31664.35
568.419	31657.94
568.628	31648.81
568.837	31642.1
569.046	31635.41
569.255	31639.17
569.464	31630.97
569.673	31619.55
569.882	31609.45
570.091	31603.81
570.3	31612.54
570.509	31617.81
570.718	31611.26
570.927	31619.43
571.135	31626.97
571.344	31636.46
571.553	31643.01
571.762	31654.74
571.971	31676.99
572.18	31692.95
572.388	31704.41
572.597	31708.06
572.806	31711.66
573.014	31723.35
573.223	31717.72
573.432	31713.88
573.641	31710.37
573.849	31704.08
574.058	31702.68
574.266	31692.97
574.475	31689.03
574.684	31686.21
574.892	31685.5
575.101	31685.08
575.309	31693.01
575.518	31707.66
575.726	31716.88
575.935	31712.03
576.143	31703.81
576.352	31702.21
576.56	31696.57
576.769	31702.9
576.977	31702.74
577.186	31698.32
577.394	31702.43
577.602	31696.54
577.811	31688.95
578.019	31688.83
578.228	31693.86
578.436	31710.34
578.644	31712.86
578.852	31718.41
579.061	31711.23
579.269	31710.32
579.477	31707.37
579.685	31701.66
579.894	31699.75
580.102	31698.3
580.31	31697.75
580.518	31691.34
580.726	31690.55
580.935	31680.01
581.143	31678.03
581.351	31675.81
581.559	31667.9
581.767	31660.75
581.975	31662.01
582.183	31655.99
582.391	31660.39
582.599	31655.63
582.807	31655.37
583.015	31653.25
583.223	31648.19
583.431	31648.23
583.639	31644.46
583.847	31651.12
584.055	31654.3
584.263	31636.77
584.471	31633.55
584.678	31619.65
584.886	31609.95
585.094	31599.99
585.302	31588.92
585.51	31591.17
585.718	31574.9
585.925	31566.55
586.133	31555.3
586.341	31546.21
586.549	31556.37
586.756	31555.57
586.964	31553.14
587.172	31543.85
587.379	31541.88
587.587	31533.14
587.795	31524.12
588.002	31512.15
588.21	31509.81
588.417	31497.79
588.625	31487.35
588.833	31467.66
589.04	31448.72
589.248	31433.19
589.455	31427.15
589.663	31421.61
589.87	31414.59
590.078	31402.68
590.285	31405.23
590.492	31381.5
590.7	31377.17
590.907	31367.14
591.115	31361.21
591.322	31353.63
591.529	31350.21
591.737	31337.1
591.944	31319.05
592.151	31304.57
592.359	31308.32
592.566	31295.85
592.773	31295.3
592.981	31285.1
593.188	31279.1
593.395	31274.39
593.602	31273.17
593.809	31263.46
594.017	31259.85
594.224	31259.52
594.431	31259.54
594.638	31249.1
594.845	31250.65
595.052	31238.26
595.259	31229.54
595.466	31220.99
595.673	31215.65
595.88	31215.46
596.088	31216.15
596.295	31213.85
596.502	31199.81
596.709	31193.86
596.915	31184.99
597.122	31178.95
597.329	31188.54
597.536	31197.85
597.743	31207.39
597.95	31208.41
598.157	31206.95
598.364	31196.1
598.571	31178.08
598.777	31170.52
598.984	31143.25
599.191	31125.05
599.398	31105.05
599.605	31088.3
599.811	31067.79
600.018	31042.85
600.225	31011.95
600.431	30978.1
600.638	30962.41
600.845	30961.99
601.052	30964.17
601.258	30970.66
601.465	30963.17
601.671	30938.79
601.878	30899.41
602.085	30842.26
602.291	30771.14
602.498	30687.57
602.704	30596.57
602.911	30473.08
603.117	30330.92
603.324	30155.65
603.53	29974.06
603.737	29781.75
603.943	29583.59
604.15	29380.57
604.356	29176.7
604.562	28965.5
604.769	28751.88
604.975	28529.25
605.181	28310.45
605.388	28088.88
605.594	27870.25
605.8	27641.34
606.007	27410.81
606.213	27186.06
606.419	26958.74
606.625	26733.15
606.832	26501.97
607.038	26274.25
607.244	26046.25
607.45	25817.9
607.656	25582.75
607.863	25345.59
608.069	25102.57
608.275	24866.94
608.481	24621.54
608.687	24370.86
608.893	24114.57
609.099	23871.85
609.305	23620.95
609.511	23369.3
609.717	23111.86
609.923	22856.5
610.129	22602.3
610.335	22346.52
610.541	22077.05
610.747	21812.41
610.953	21539.9
611.159	21270.86
611.365	20992.83
611.571	20714.12
611.776	20420.75
611.982	20128.95
612.188	19832.86
612.394	19534.43
612.6	19237.35
612.806	18939.9
613.011	18641.92
613.217	18342.7
613.423	18039.35
613.628	17738.52
613.834	17437.52
614.04	17151.61
614.246	16863.19
614.451	16574.97
614.657	16298.21
614.862	16021.77
615.068	15759.01
615.274	15496.14
615.479	15245.05
615.685	14990.25
615.89	14737.52
616.096	14493.21
616.301	14247.86
616.507	13999.03
616.712	13753.48
616.918	13495.08
617.123	13237.3
617.329	12964.05
617.534	12692.32
617.74	12418.79
617.945	12139.34
618.15	11841.95
618.356	11356.72
618.561	10449.72
618.766	9352.74
618.972	8218.75
619.177	7116.03
619.382	6039.72
619.588	4992.43
619.793	4363.18
619.998	3621.1
620.203	2739.25
620.408	1668.01
620.614	617.2
