Data from test1_MAYP1115451__19__10-17-15-478.txt Node

Date: Wed Jun 12 10:17:15 MDT 2024
User: Modes Lab
Spectrometer: MAYP111545
Trigger mode: 0
Integration Time (sec): 8.000000E-3
Scans to average: 5
Electric dark correction enabled: true
Nonlinearity correction enabled: false
Boxcar width: 5
XAxis mode: Wavelengths
Number of Pixels in Spectrum: 2068
>>>>>Begin Spectral Data<<<<<
165.214	163.63
165.449	163.57
165.683	172.54
165.918	182.26
166.152	187.95
166.387	193.6
166.621	125.73
166.856	164.64
167.09	182.86
167.325	205.95
167.559	222.48
167.794	236.71
168.028	243.71
168.263	245.15
168.497	244.49
168.732	245.33
168.966	245.88
169.2	246.15
169.435	247.33
169.669	248.62
169.903	249.71
170.138	252.13
170.372	253.84
170.606	256.13
170.841	257.98
171.075	259.33
171.309	261.51
171.544	262.31
171.778	265.24
172.012	266.35
172.246	268.2
172.48	271.33
172.715	272.57
172.949	274.35
173.183	275.57
173.417	276.49
173.651	278
173.885	278.77
174.119	279.2
174.354	279.62
174.588	280.58
174.822	281.06
175.056	279.69
175.29	279.09
175.524	279.06
175.758	278.58
175.992	279.69
176.226	279.13
176.46	280.46
176.694	281.8
176.928	282.18
177.162	282.73
177.396	283.4
177.63	285.29
177.864	287.53
178.097	288.73
178.331	290.69
178.565	290.8
178.799	292.13
179.033	292.08
179.267	293.82
179.5	293.58
179.734	294.04
179.968	295.29
180.202	295.98
180.436	296.91
180.669	296.97
180.903	297.68
181.137	298.44
181.371	299.86
181.604	300.37
181.838	301
182.072	302.55
182.305	304.73
182.539	306.33
182.772	308.28
183.006	308.11
183.24	308.77
183.473	311.84
183.707	312.33
183.94	313.4
184.174	315.2
184.408	315.62
184.641	317.15
184.875	316.91
185.108	317.64
185.342	317.71
185.575	319.28
185.808	321.42
186.042	320.75
186.275	322.58
186.509	323.68
186.742	324.71
186.976	326.18
187.209	327.84
187.442	329.55
187.676	329.97
187.909	332.02
188.142	333.66
188.376	334.93
188.609	336.44
188.842	338.69
189.076	340.35
189.309	342.09
189.542	343.46
189.775	344.91
190.009	347.24
190.242	349.91
190.475	351.4
190.708	353.24
190.941	355.24
191.174	356.64
191.408	357.31
191.641	358.98
191.874	360.62
192.107	362.77
192.34	364.82
192.573	365.82
192.806	367.28
193.039	368.13
193.272	369.86
193.505	371.64
193.738	374
193.971	376.18
194.204	377.8
194.437	380.42
194.67	382.06
194.903	383.13
195.136	385.13
195.369	387.71
195.602	390.22
195.835	392.15
196.068	394.17
196.301	395.86
196.533	397.09
196.766	399.68
196.999	400.8
197.232	402.66
197.465	404.26
197.698	406.6
197.93	408.15
198.163	410.91
198.396	412.71
198.629	413.82
198.861	415.51
199.094	417.73
199.327	418.98
199.559	421.26
199.792	423.31
200.025	426.2
200.257	427.68
200.49	429.64
200.723	431.48
200.955	433.86
201.188	436.71
201.42	440.11
201.653	443.08
201.886	445.49
202.118	447.57
202.351	449.64
202.583	451.95
202.816	454.88
203.048	457.15
203.281	457.8
203.513	459.71
203.745	461.97
203.978	462.29
204.21	464.2
204.443	466.48
204.675	468.88
204.907	472.55
205.14	475.84
205.372	477.86
205.605	479.97
205.837	483.66
206.069	486.29
206.302	489
206.534	492.48
206.766	495.15
206.998	497.22
207.231	499.28
207.463	500.48
207.695	501.18
207.927	503.77
208.159	505.38
208.392	506.86
208.624	507.8
208.856	508.37
209.088	510.11
209.32	511.69
209.552	514.31
209.784	516.51
210.017	518.4
210.249	520.75
210.481	521.68
210.713	524.68
210.945	525.75
211.177	528.73
211.409	532
211.641	534.17
211.873	536.46
212.105	538.09
212.337	539.75
212.569	542.2
212.801	544.64
213.033	547.06
213.264	548.88
213.496	551.48
213.728	553.66
213.96	554.18
214.192	555.4
214.424	557.44
214.656	559.37
214.887	561.38
215.119	563.17
215.351	564
215.583	565.69
215.815	567.15
216.046	570.22
216.278	571.57
216.51	574.02
216.741	576.49
216.973	578.2
217.205	578.69
217.436	580.09
217.668	581.75
217.9	584.35
218.131	585.6
218.363	587.62
218.595	588.24
218.826	589.58
219.058	591.86
219.289	592.91
219.521	593.66
219.752	595.33
219.984	596.6
220.215	595.8
220.447	596.88
220.678	598.48
220.91	599.38
221.141	601.02
221.373	601.97
221.604	601.13
221.836	602
222.067	603.09
222.298	605
222.53	606.04
222.761	609.15
222.993	608.77
223.224	610.42
223.455	611.28
223.686	611.42
223.918	612.46
224.149	614.04
224.38	615.77
224.612	615.78
224.843	616.66
225.074	617.38
225.305	618.02
225.536	619.78
225.768	619.89
225.999	619.49
226.23	619.91
226.461	619.66
226.692	619.98
226.923	617.68
227.155	620.38
227.386	620.29
227.617	619.35
227.848	619.22
228.079	619.51
228.31	619.78
228.541	620.58
228.772	620.37
229.003	620.62
229.234	621.44
229.465	622.38
229.696	621.8
229.927	621.17
230.158	622.71
230.389	622.69
230.62	622.71
230.85	622.49
231.081	622.93
231.312	623.2
231.543	623.77
231.774	623.38
232.005	624.66
232.236	624.2
232.466	625.02
232.697	624.77
232.928	624.26
233.159	623.35
233.389	623.88
233.62	623.57
233.851	623.22
234.082	623.2
234.312	622.77
234.543	621.38
234.774	619.84
235.004	620.62
235.235	620.58
235.466	621.58
235.696	620.91
235.927	619.82
236.157	619.86
236.388	621.08
236.618	620.64
236.849	621.68
237.08	622.4
237.31	623.93
237.541	623.13
237.771	622.66
238.002	621.48
238.232	621.46
238.463	621.86
238.693	621.38
238.923	620.24
239.154	619.22
239.384	617.93
239.615	617.88
239.845	616.48
240.075	615.46
240.306	614.62
240.536	614.53
240.766	614.37
240.997	613.4
241.227	612.88
241.457	611.71
241.687	611.89
241.918	611.48
242.148	610.75
242.378	611.42
242.608	610.78
242.839	610.82
243.069	610.84
243.299	609.71
243.529	610.86
243.759	609.82
243.989	610.62
244.22	610.55
244.45	609.75
244.68	609.58
244.91	608.28
245.14	608.22
245.37	608.33
245.6	607.26
245.83	608.2
246.06	605.62
246.29	606.64
246.52	606.06
246.75	605.66
246.98	606.26
247.21	605.46
247.44	604.58
247.67	604.35
247.9	603.28
248.13	602.58
248.359	601.69
248.589	600.73
248.819	597.35
249.049	595.71
249.279	594.57
249.509	593.42
249.738	593.28
249.968	593.44
250.198	591.97
250.428	591.18
250.657	590.24
250.887	590.75
251.117	591.26
251.347	592.02
251.576	591.73
251.806	591.48
252.036	589.93
252.265	587.77
252.495	586.57
252.725	587.58
252.954	588.06
253.184	588.4
253.413	586.97
253.643	586.68
253.873	587.31
254.102	588.26
254.332	587.78
254.561	588.84
254.791	588.64
255.02	588.08
255.25	586.17
255.479	585.11
255.708	583.78
255.938	583.48
256.167	581.75
256.397	581.02
256.626	579.98
256.856	579.06
257.085	577.62
257.314	577.86
257.544	577.38
257.773	578.28
258.002	576.8
258.232	576.04
258.461	575.28
258.69	574.93
258.919	573.42
259.149	571.95
259.378	571.86
259.607	570.35
259.836	570.26
260.065	569.33
260.295	567.09
260.524	567
260.753	567.42
260.982	565.75
261.211	564.57
261.44	565.18
261.669	564.02
261.899	563.31
262.128	564.38
262.357	562.93
262.586	562.38
262.815	561.42
263.044	560.95
263.273	562.64
263.502	563.02
263.731	563.28
263.96	561.37
264.189	561.57
264.418	559.53
264.646	557.4
264.875	555.06
265.104	554.49
265.333	553.38
265.562	552.02
265.791	547.49
266.02	546.4
266.249	546.82
266.477	545.78
266.706	544.57
266.935	544.89
267.164	544.95
267.393	545.28
267.621	545.62
267.85	545.46
268.079	545.55
268.307	545.02
268.536	543.55
268.765	542.88
268.993	542.18
269.222	541.42
269.451	541.2
269.679	540.4
269.908	540.51
270.137	539.44
270.365	539.55
270.594	538.4
270.822	538.73
271.051	539.44
271.279	539.04
271.508	540.06
271.736	540.71
271.965	540.31
272.193	540.46
272.422	542.11
272.65	541.17
272.879	540.57
273.107	541.38
273.336	541.98
273.564	540.58
273.792	537.46
274.021	536.35
274.249	535.18
274.477	533.86
274.706	533.18
274.934	531.11
275.162	530.24
275.391	529.77
275.619	528.88
275.847	527.33
276.075	527.49
276.304	526.98
276.532	526.22
276.76	524.64
276.988	524.13
277.216	523.86
277.445	522.82
277.673	521.13
277.901	520.57
278.129	519.86
278.357	519.69
278.585	518.33
278.813	518.77
279.041	517.2
279.269	516.18
279.497	515.6
279.725	514.57
279.954	513.68
280.182	515.77
280.41	515.66
280.637	514.64
280.865	513.29
281.093	513.84
281.321	513.13
281.549	513.8
281.777	514.06
282.005	513.98
282.233	512.6
282.461	511.6
282.689	509.73
282.916	507.49
283.144	506.95
283.372	506.04
283.6	505.88
283.828	504.75
284.055	503.68
284.283	502.64
284.511	502.69
284.739	503.66
284.966	505.17
285.194	503.95
285.422	504.09
285.649	502.26
285.877	502.13
286.105	501.48
286.332	501.88
286.56	502.06
286.788	501.75
287.015	500.37
287.243	499.29
287.47	497.28
287.698	496.97
287.925	496.77
288.153	497.49
288.381	496.64
288.608	494.97
288.836	494.64
289.063	493.04
289.29	493.38
289.518	493.38
289.745	491.93
289.973	491.13
290.2	491.48
290.428	490.8
290.655	490.6
290.882	490.02
291.11	489.84
291.337	488.98
291.564	488.95
291.792	488.44
292.019	487.33
292.246	487.09
292.473	485.95
292.701	485.2
292.928	484.57
293.155	483.97
293.382	484.31
293.61	482.8
293.837	482.8
294.064	481.33
294.291	479.62
294.518	478.58
294.745	478.29
294.972	478.31
295.2	477.62
295.427	476.73
295.654	476.68
295.881	475.06
296.108	475.24
296.335	474.28
296.562	474.17
296.789	474.97
297.016	474.98
297.243	473.82
297.47	475.02
297.697	472.69
297.924	472.28
298.151	471.06
298.378	470.35
298.604	470.08
298.831	468.35
299.058	467.31
299.285	466.8
299.512	465.97
299.739	466.57
299.966	464.53
300.192	465.91
300.419	466.28
300.646	465.8
300.873	465.08
301.099	464.26
301.326	465.13
301.553	465.44
301.78	466.18
302.006	465.89
302.233	465.13
302.46	464.44
302.686	463.53
302.913	463.73
303.14	462.89
303.366	463.37
303.593	463.24
303.819	463.17
304.046	462.82
304.272	460.98
304.499	460.88
304.725	460.18
304.952	459.93
305.179	459.48
305.405	457.62
305.631	457.15
305.858	457.53
306.084	456.15
306.311	455.13
306.537	455.37
306.764	455.31
306.99	454.95
307.216	455.17
307.443	454.93
307.669	455.09
307.895	455.48
308.122	455.42
308.348	454.73
308.574	454.62
308.801	456.08
309.027	455.73
309.253	455.46
309.479	454.48
309.706	453.93
309.932	453.31
310.158	452.64
310.384	452.73
310.61	451.98
310.837	451.69
311.063	451.86
311.289	450.17
311.515	450.06
311.741	449.57
311.967	450.22
312.193	450.86
312.419	451.24
312.645	451.73
312.871	450.68
313.097	450.55
313.323	450.33
313.549	451.93
313.775	452.24
314.001	452
314.227	451.82
314.453	451.77
314.679	451.44
314.905	452.2
315.131	452.18
315.357	453.2
315.583	454.38
315.809	455.04
316.034	455.55
316.26	456.8
316.486	457.18
316.712	458.11
316.938	458.48
317.163	459.28
317.389	458.75
317.615	458.75
317.841	458.75
318.066	458.93
318.292	459.82
318.518	458.6
318.743	457.28
318.969	458.24
319.195	458.78
319.42	458.73
319.646	458.98
319.872	460.46
320.097	461.82
320.323	462.91
320.548	464.89
320.774	465.95
320.999	467.75
321.225	469.58
321.45	470.26
321.676	470.91
321.901	473.26
322.127	474.89
322.352	475.78
322.578	476.91
322.803	478.51
323.029	479.04
323.254	480.64
323.479	482.29
323.705	483.35
323.93	485.77
324.155	488.44
324.381	489.75
324.606	491.44
324.831	493.4
325.057	495.93
325.282	498.98
325.507	501.89
325.732	503.82
325.958	505.44
326.183	509.06
326.408	510.15
326.633	512.29
326.858	516.04
327.084	519.37
327.309	522.82
327.534	525.88
327.759	527.49
327.984	529.97
328.209	532.13
328.434	535.11
328.659	537.68
328.884	542.15
329.109	545.49
329.334	548.11
329.559	550.13
329.784	552.71
330.009	555.95
330.234	559.28
330.459	562.93
330.684	567.53
330.909	572.08
331.134	575.77
331.359	579.49
331.584	583.04
331.809	586.57
332.034	590.88
332.259	594.18
332.483	597.82
332.708	601.91
332.933	605.6
333.158	609.68
333.383	615.48
333.607	619.89
333.832	624.11
334.057	628.71
334.282	633.35
334.506	639.02
334.731	645.46
334.956	652.26
335.18	658.64
335.405	664.46
335.63	671.13
335.854	674.33
336.079	680.68
336.303	686.77
336.528	693.06
336.753	699.46
336.977	705.06
337.202	710.44
337.426	716.26
337.651	722.77
337.875	729.17
338.1	735.33
338.324	742.98
338.549	749.88
338.773	756.48
338.997	762.71
339.222	769.28
339.446	775.4
339.671	783.84
339.895	790.78
340.119	796.98
340.344	805.48
340.568	811.18
340.792	819.82
341.017	827.78
341.241	837.49
341.465	847
341.689	855.88
341.914	864.49
342.138	872.06
342.362	879.93
342.586	889.42
342.811	897.77
343.035	907.22
343.259	914.08
343.483	921.55
343.707	927.4
343.931	936.11
344.155	944.69
344.38	954.2
344.604	963.02
344.828	972.46
345.052	980.28
345.276	988.17
345.5	997.88
345.724	1007.77
345.948	1018.28
346.172	1028.08
346.396	1037
346.62	1047.82
346.844	1057.48
347.068	1067.09
347.292	1078
347.515	1089.26
347.739	1102.13
347.963	1111.18
348.187	1121.33
348.411	1131.2
348.635	1143.11
348.859	1153.98
349.082	1162.2
349.306	1173.86
349.53	1184.73
349.754	1194
349.977	1202.98
350.201	1212.08
350.425	1223.2
350.649	1234.57
350.872	1244.82
351.096	1255.4
351.32	1266.37
351.543	1277.49
351.767	1288.35
351.99	1299.89
352.214	1310.69
352.438	1323.02
352.661	1334.2
352.885	1345.4
353.108	1356.69
353.332	1369
353.555	1382.6
353.779	1395.33
354.002	1407.09
354.226	1416.13
354.449	1428.09
354.673	1439.82
354.896	1451.2
355.12	1463.4
355.343	1474.98
355.566	1486.46
355.79	1498.71
356.013	1508.49
356.237	1519.64
356.46	1533
356.683	1547.35
356.907	1560.11
357.13	1574
357.353	1587.97
357.576	1598.91
357.8	1612.04
358.023	1623.93
358.246	1636.22
358.469	1648.49
358.693	1662.64
358.916	1675.02
359.139	1689.33
359.362	1702.55
359.585	1717.53
359.808	1730.11
360.031	1743.04
360.255	1755.02
360.478	1769.26
360.701	1782.8
360.924	1798.02
361.147	1809.26
361.37	1822.88
361.593	1836.31
361.816	1848.91
362.039	1860.58
362.262	1873.69
362.485	1889.09
362.708	1903.58
362.931	1918.55
363.154	1933.73
363.377	1945.88
363.599	1961.04
363.822	1974.75
364.045	1987.86
364.268	2002.66
364.491	2015.51
364.714	2029.13
364.936	2041.48
365.159	2055.37
365.382	2068.06
365.605	2081.02
365.828	2098.09
366.05	2111.89
366.273	2125.46
366.496	2140.8
366.718	2156.73
366.941	2172.68
367.164	2188.75
367.386	2204.2
367.609	2222.58
367.832	2240.69
368.054	2256.58
368.277	2271.18
368.5	2286.04
368.722	2305.02
368.945	2317.57
369.167	2332.88
369.39	2348.6
369.612	2363.17
369.835	2378.78
370.057	2393.98
370.28	2407.98
370.502	2425.93
370.725	2440.6
370.947	2459.06
371.169	2476.42
371.392	2497.8
371.614	2514.04
371.837	2531.48
372.059	2549.93
372.281	2568.93
372.504	2585.31
372.726	2602.88
372.948	2617.44
373.171	2635.69
373.393	2653.17
373.615	2667.89
373.837	2683.08
374.06	2699.89
374.282	2716.42
374.504	2735.29
374.726	2751.24
374.948	2770.84
375.17	2787.93
375.393	2806.31
375.615	2826.02
375.837	2844.8
376.059	2865.28
376.281	2884.22
376.503	2904.17
376.725	2923.78
376.947	2941.8
377.169	2964.98
377.391	2985.84
377.613	3007.95
377.835	3032.09
378.057	3053.33
378.279	3075.57
378.501	3092.53
378.723	3111.97
378.945	3135.98
379.167	3161.13
379.389	3183.15
379.611	3204.22
379.833	3225.04
380.054	3246.18
380.276	3268.88
380.498	3290.35
380.72	3315.98
380.942	3341.95
381.163	3369.84
381.385	3393.35
381.607	3415.8
381.829	3442.82
382.05	3468.11
382.272	3493.44
382.494	3521.42
382.716	3545.51
382.937	3570.77
383.159	3594.89
383.381	3619.18
383.602	3642.09
383.824	3665.51
384.045	3688.08
384.267	3712.78
384.488	3738.38
384.71	3762.8
384.932	3789.98
385.153	3815.48
385.375	3842
385.596	3863.09
385.818	3891.77
386.039	3920.35
386.261	3950.49
386.482	3979.62
386.703	4005.62
386.925	4031.04
387.146	4059.82
387.368	4085.58
387.589	4111.95
387.81	4141.2
388.032	4172.29
388.253	4199.98
388.474	4227.31
388.696	4255.06
388.917	4281.89
389.138	4311.86
389.359	4343.04
389.581	4374.51
389.802	4404.84
390.023	4436.82
390.244	4462
390.465	4488.64
390.687	4519.82
390.908	4549.58
391.129	4581.18
391.35	4613.82
391.571	4645.4
391.792	4677.13
392.013	4706.73
392.234	4734.75
392.455	4766.46
392.677	4800.26
392.898	4832.77
393.119	4864.06
393.34	4896.09
393.561	4924.08
393.782	4954.75
394.003	4984.17
394.223	5015.46
394.444	5045.29
394.665	5078.57
394.886	5109.33
395.107	5143.73
395.328	5178.44
395.549	5210.38
395.77	5243.11
395.99	5279.18
396.211	5314.2
396.432	5354.31
396.653	5392.38
396.874	5429.04
397.094	5464
397.315	5498.68
397.536	5531.78
397.757	5566.48
397.977	5603.15
398.198	5639.51
398.419	5673.2
398.639	5704.02
398.86	5731.35
399.081	5763.37
399.301	5793.08
399.522	5828.31
399.742	5858.64
399.963	5890.66
400.184	5922.38
400.404	5957.08
400.625	5989.58
400.845	6023.24
401.066	6060.4
401.286	6096.98
401.507	6128.42
401.727	6163.93
401.948	6197.57
402.168	6234.09
402.388	6269.24
402.609	6305.2
402.829	6336.69
403.05	6372.78
403.27	6407.24
403.49	6439.66
403.711	6476.46
403.931	6509.78
404.151	6544.49
404.372	6581.31
404.592	6617.2
404.812	6651.84
405.032	6683.11
405.253	6715.08
405.473	6746.91
405.693	6778.69
405.913	6814.15
406.133	6847.15
406.353	6882.04
406.574	6917.22
406.794	6948.46
407.014	6984.49
407.234	7023.29
407.454	7061.2
407.674	7101.75
407.894	7139.26
408.114	7174.75
408.334	7209.17
408.554	7243.97
408.774	7280.35
408.994	7318.68
409.214	7357.8
409.434	7393.6
409.654	7431.66
409.874	7471.48
410.094	7507.69
410.314	7544.2
410.534	7580.42
410.754	7620.24
410.974	7658.64
411.193	7698.33
411.413	7736.73
411.633	7773.04
411.853	7812.46
412.073	7849.84
412.292	7887.82
412.512	7923.69
412.732	7962.89
412.952	8005.24
413.171	8047.37
413.391	8088.97
413.611	8130.31
413.831	8168.35
414.05	8208.73
414.27	8246.8
414.489	8286.62
414.709	8325.29
414.929	8369.48
415.148	8413.58
415.368	8459.95
415.587	8500.15
415.807	8539.84
416.026	8580.48
416.246	8625.44
416.465	8668.15
416.685	8713.31
416.904	8754.64
417.124	8804.31
417.343	8846.84
417.563	8890.6
417.782	8930.09
418.002	8977.26
418.221	9022.29
418.44	9067.77
418.66	9110.33
418.879	9157.04
419.098	9199.48
419.318	9247.37
419.537	9287.4
419.756	9334.57
419.976	9375.91
420.195	9416.77
420.414	9463.77
420.633	9508.26
420.853	9555.26
421.072	9602.33
421.291	9644.78
421.51	9691.13
421.729	9733.2
421.948	9778.44
422.168	9824.02
422.387	9869.55
422.606	9916.91
422.825	9951.51
423.044	9991.69
423.263	10029.38
423.482	10073.13
423.701	10113.64
423.92	10155.98
424.139	10202.88
424.358	10243.97
424.577	10289.58
424.796	10338.77
425.015	10388.98
425.234	10438.57
425.453	10484.89
425.672	10533.13
425.891	10579.8
426.11	10632.28
426.328	10676.95
426.547	10717.75
426.766	10765.29
426.985	10806.51
427.204	10850.09
427.422	10891.37
427.641	10941.28
427.86	10989.69
428.079	11033.08
428.297	11079.64
428.516	11127.73
428.735	11185.86
428.954	11240.18
429.172	11290.71
429.391	11340.71
429.61	11386.4
429.828	11438.8
430.047	11485.28
430.265	11535.88
430.484	11588.93
430.703	11631.62
430.921	11676.28
431.14	11716.95
431.358	11759.09
431.577	11811.88
431.795	11857.33
432.014	11907.82
432.232	11952.98
432.451	12001.86
432.669	12049.78
432.887	12093.75
433.106	12141.08
433.324	12193.86
433.543	12242.11
433.761	12296.17
433.979	12342.4
434.198	12393.77
434.416	12443.98
434.634	12486.51
434.853	12531.86
435.071	12571.66
435.289	12622.95
435.507	12670.24
435.726	12709.53
435.944	12756.71
436.162	12798.97
436.38	12838.88
436.598	12880.26
436.817	12920.04
437.035	12972.73
437.253	13021.6
437.471	13076.17
437.689	13121.46
437.907	13178.77
438.125	13229.09
438.343	13273.8
438.561	13319.66
438.78	13365.42
438.998	13411.51
439.216	13468.24
439.434	13508.35
439.652	13551.24
439.869	13600.95
440.087	13647.89
440.305	13689.11
440.523	13731.77
440.741	13780.29
440.959	13829.48
441.177	13883.08
441.395	13939.57
441.613	13981.28
441.831	14035.08
442.048	14085.06
442.266	14130.46
442.484	14177.46
442.702	14227.95
442.919	14279.6
443.137	14329.55
443.355	14382.13
443.573	14431.22
443.79	14478.8
444.008	14529.24
444.226	14582.46
444.443	14628.37
444.661	14675.48
444.879	14726.8
445.096	14776.38
445.314	14831.22
445.532	14876.64
445.749	14917
445.967	14964.86
446.184	15006.8
446.402	15047.71
446.619	15084.08
446.837	15132.89
447.054	15178.38
447.272	15223.75
447.489	15265.91
447.707	15303.71
447.924	15350.68
448.141	15403.09
448.359	15449.13
448.576	15502.48
448.794	15561.29
449.011	15618.69
449.228	15661.78
449.446	15716.33
449.663	15768
449.88	15815.55
450.098	15872.38
450.315	15924.37
450.532	15970.57
450.749	16020
450.967	16064.24
451.184	16107.88
451.401	16152.66
451.618	16206.18
451.835	16249.91
452.052	16291.88
452.27	16338.98
452.487	16382.18
452.704	16430.26
452.921	16477.28
453.138	16518.28
453.355	16569.4
453.572	16618.86
453.789	16661.77
454.006	16712.86
454.223	16755.29
454.44	16801.84
454.657	16852.84
454.874	16895.77
455.091	16939.88
455.308	16994.35
455.525	17049.33
455.742	17093.51
455.959	17135.28
456.176	17185.8
456.393	17234.13
456.609	17284.13
456.826	17334.29
457.043	17388.84
457.26	17443.37
457.477	17489.42
457.693	17530.66
457.91	17576.13
458.127	17623.91
458.344	17669.02
458.56	17712.24
458.777	17747.17
458.994	17792.68
459.21	17836.6
459.427	17865.91
459.644	17899.4
459.86	17936.49
460.077	17973.37
460.294	18004.29
460.51	18036.97
460.727	18071.97
460.943	18110.8
461.16	18146.28
461.376	18174.13
461.593	18208.57
461.809	18250.62
462.026	18298.29
462.242	18342.78
462.459	18379.13
462.675	18420.15
462.892	18463.77
463.108	18504.08
463.324	18543.11
463.541	18587.77
463.757	18635.86
463.974	18672.84
464.19	18717.51
464.406	18742.53
464.623	18793.73
464.839	18842.42
465.055	18885.31
465.271	18934.78
465.488	18979.31
465.704	19026.84
465.92	19075.09
466.136	19119.73
466.353	19178.38
466.569	19216.53
466.785	19277.06
467.001	19317.28
467.217	19366.98
467.433	19424.95
467.649	19475.4
467.865	19540.89
468.082	19604.98
468.298	19666.37
468.514	19733.06
468.73	19793.31
468.946	19870.6
469.162	19935.68
469.378	20005.62
469.594	20070.91
469.81	20138.51
470.026	20202.68
470.242	20259.66
470.457	20320.86
470.673	20387.26
470.889	20451.28
471.105	20522.37
471.321	20584.48
471.537	20645.28
471.753	20707.35
471.968	20776.11
472.184	20838.08
472.4	20910.82
472.616	20983.48
472.832	21056.02
473.047	21129.17
473.263	21204.08
473.479	21268.53
473.694	21347.08
473.91	21427.82
474.126	21505.77
474.341	21584.73
474.557	21665.78
474.773	21733.66
474.988	21803.13
475.204	21870.71
475.42	21938.17
475.635	22005.24
475.851	22081.06
476.066	22137.37
476.282	22203.11
476.497	22268.88
476.713	22330.46
476.928	22389.49
477.144	22458.91
477.359	22530.64
477.575	22593.02
477.79	22663.53
478.005	22730.35
478.221	22787.49
478.436	22857.98
478.651	22919.88
478.867	22979.6
479.082	23037.75
479.297	23097.78
479.513	23159.57
479.728	23213.44
479.943	23266.77
480.159	23319
480.374	23372.8
480.589	23433.44
480.804	23483.78
481.019	23532.15
481.235	23582.38
481.45	23630.17
481.665	23684.48
481.88	23732.71
482.095	23778.84
482.31	23828.17
482.525	23874.09
482.741	23925.42
482.956	23966.26
483.171	24007.49
483.386	24063.31
483.601	24100.22
483.816	24154.75
484.031	24191.68
484.246	24226.64
484.461	24271.04
484.676	24322.97
484.891	24366.64
485.105	24405.6
485.32	24452.64
485.535	24495.11
485.75	24534.49
485.965	24588.51
486.18	24623.2
486.395	24668.06
486.609	24720.66
486.824	24770.84
487.039	24805.02
487.254	24844.17
487.469	24877.06
487.683	24918.31
487.898	24953.28
488.113	24983.93
488.327	25019.95
488.542	25059.62
488.757	25090.73
488.972	25124.26
489.186	25155.35
489.401	25201.2
489.615	25242.69
489.83	25278.13
490.045	25306.33
490.259	25350.06
490.474	25390.49
490.688	25421.55
490.903	25446.77
491.117	25492.66
491.332	25519.2
491.546	25546.8
491.761	25571.53
491.975	25598.91
492.19	25637.98
492.404	25672.95
492.618	25703.53
492.833	25732.93
493.047	25767.71
493.262	25811.78
493.476	25832.97
493.69	25871.53
493.905	25905.35
494.119	25938.62
494.333	25962.22
494.547	25987.02
494.762	26005.46
494.976	26036.97
495.19	26063.89
495.404	26087.89
495.619	26108.31
495.833	26145.02
496.047	26166.37
496.261	26182.2
496.475	26193.48
496.689	26204.73
496.903	26211.73
497.117	26221.86
497.332	26220.53
497.546	26216.06
497.76	26209.33
497.974	26196.57
498.188	26178.2
498.402	26156.84
498.616	26152.02
498.83	26141.64
499.044	26143.68
499.258	26142.88
499.472	26144.06
499.685	26147.66
499.899	26155.55
500.113	26163.18
500.327	26169.86
500.541	26183.38
500.755	26204.86
500.969	26221.44
501.183	26239.68
501.396	26256.29
501.61	26280.4
501.824	26297.4
502.038	26315.02
502.251	26337.18
502.465	26361.31
502.679	26387.31
502.892	26400.26
503.106	26424.66
503.32	26448.53
503.533	26474.66
503.747	26490.62
503.961	26509.13
504.174	26541.95
504.388	26568.22
504.602	26597.68
504.815	26627.62
505.029	26661.17
505.242	26711.4
505.456	26749.06
505.669	26783.22
505.883	26826.11
506.096	26883.57
506.31	26942.73
506.523	26990.62
506.736	27040.58
506.95	27088.6
507.163	27144.82
507.377	27208.78
507.59	27262.53
507.803	27318.95
508.017	27382.22
508.23	27444.15
508.443	27503.64
508.657	27551.06
508.87	27614.62
509.083	27684.04
509.296	27753.55
509.51	27827.48
509.723	27898.53
509.936	27973.13
510.149	28048.09
510.363	28134.55
510.576	28223.18
510.789	28316.11
511.002	28424.88
511.215	28529.86
511.428	28634.78
511.641	28735.62
511.854	28830.69
512.067	28928.6
512.28	29038.8
512.493	29148.71
512.707	29254.18
512.92	29353.53
513.132	29447.06
513.345	29538.26
513.558	29635
513.771	29730.78
513.984	29838.37
514.197	29951.55
514.41	30057.62
514.623	30161.51
514.836	30269.4
515.049	30368.66
515.262	30473.24
515.474	30586.84
515.687	30684.97
515.9	30778.26
516.113	30880.75
516.325	30967.78
516.538	31059.31
516.751	31161.77
516.964	31237.11
517.176	31326.78
517.389	31413.24
517.602	31504.11
517.814	31580.04
518.027	31666.55
518.24	31745.64
518.452	31814.42
518.665	31895.18
518.877	31970.8
519.09	32039.91
519.303	32114.53
519.515	32176.49
519.728	32242.29
519.94	32301.4
520.153	32369
520.365	32446.77
520.578	32511.75
520.79	32572.44
521.002	32640.11
521.215	32697.37
521.427	32748.86
521.64	32812.78
521.852	32868.37
522.064	32928.88
522.277	32987.35
522.489	33048.46
522.701	33086.66
522.914	33142.13
523.126	33200.4
523.338	33250.91
523.551	33296.06
523.763	33351.69
523.975	33395.17
524.187	33447.17
524.399	33490.49
524.612	33535.49
524.824	33564.77
525.036	33613.51
525.248	33660.91
525.46	33698.26
525.672	33732.06
525.884	33772.22
526.096	33809.84
526.308	33856.48
526.521	33877.89
526.733	33909.55
526.945	33939.91
527.157	33973.22
527.369	33999.44
527.581	34022.84
527.793	34059.86
528.004	34090.04
528.216	34119.15
528.428	34138.69
528.64	34161.24
528.852	34199.82
529.064	34227.73
529.276	34254.69
529.488	34273.55
529.699	34304.49
529.911	34336.84
530.123	34352.8
530.335	34384.17
530.547	34408.88
530.758	34437.09
530.97	34459.18
531.182	34486.18
531.393	34527.04
531.605	34561.88
531.817	34609.93
532.029	34629.58
532.24	34660.71
532.452	34689.78
532.663	34709.2
532.875	34730.24
533.087	34757.13
533.298	34775.49
533.51	34792.38
533.721	34803.18
533.933	34825.31
534.144	34839.82
534.356	34862.18
534.567	34876.75
534.779	34904.06
534.99	34920.48
535.202	34952.48
535.413	34967.82
535.624	34988.86
535.836	35018.42
536.047	35036.53
536.259	35041.93
536.47	35050.69
536.681	35065.48
536.893	35068.22
537.104	35069.22
537.315	35081.91
537.526	35082.64
537.738	35107.6
537.949	35119.64
538.16	35127.89
538.371	35144.8
538.582	35166.06
538.794	35187.13
539.005	35206.97
539.216	35228.86
539.427	35253.55
539.638	35275.4
539.849	35298.66
540.06	35299.51
540.272	35320.86
540.483	35332.69
540.694	35332.78
540.905	35343.69
541.116	35361.97
541.327	35371.11
541.538	35381.86
541.749	35397.2
541.96	35404.38
542.17	35411.62
542.381	35425.82
542.592	35440.8
542.803	35446.35
543.014	35461.51
543.225	35472.08
543.436	35471.26
543.647	35474.35
543.857	35481.38
544.068	35479.11
544.279	35485.82
544.49	35489.82
544.701	35495.62
544.911	35500.33
545.122	35514.88
545.333	35524.15
545.543	35530.66
545.754	35545.08
545.965	35560.89
546.175	35579.98
546.386	35595.88
546.597	35600.35
546.807	35617.78
547.018	35631.44
547.229	35633.98
547.439	35632.97
547.65	35633.48
547.86	35634.18
548.071	35634.68
548.281	35634.88
548.492	35635.28
548.702	35645.77
548.913	35657.17
549.123	35652.04
549.333	35653.97
549.544	35656.22
549.754	35666.37
549.965	35672.84
550.175	35686.4
550.385	35695.04
550.596	35713.53
550.806	35713.46
551.016	35709.48
551.227	35713.77
551.437	35720.84
551.647	35726.6
551.857	35736.38
552.068	35755.38
552.278	35772.53
552.488	35775.35
552.698	35784.09
552.908	35786.09
553.119	35793.08
553.329	35793.2
553.539	35798.24
553.749	35801.09
553.959	35800.29
554.169	35793.82
554.379	35785.2
554.589	35780.11
554.799	35780.75
555.009	35775.57
555.219	35772.02
555.429	35768.55
555.639	35768.86
555.849	35767.08
556.059	35758.82
556.269	35753.58
556.479	35757.38
556.689	35747.93
556.899	35749.68
557.109	35745.69
557.319	35742.46
557.528	35741.13
557.738	35747.26
557.948	35745.71
558.158	35734.29
558.368	35733.58
558.577	35728.08
558.787	35720.55
558.997	35722.13
559.207	35700.24
559.416	35683.95
559.626	35672.22
559.836	35653.77
560.045	35634.88
560.255	35633.24
560.465	35630.68
560.674	35628.13
560.884	35625.64
561.093	35623.55
561.303	35612.26
561.512	35604.24
561.722	35601.91
561.932	35593.71
562.141	35591.64
562.351	35592.29
562.56	35577.44
562.769	35568.68
562.979	35562.02
563.188	35563.11
563.398	35557.2
563.607	35554.75
563.817	35555.77
564.026	35551.84
564.235	35543.64
564.445	35533.46
564.654	35516.53
564.863	35508.51
565.073	35497.42
565.282	35483.15
565.491	35462.73
565.7	35439.33
565.91	35413.06
566.119	35400.95
566.328	35382.38
566.537	35360.73
566.746	35342.69
566.956	35338.46
567.165	35322.78
567.374	35313.6
567.583	35307.86
567.792	35291.53
568.001	35279.13
568.21	35268.8
568.419	35245.08
568.628	35222.02
568.837	35208.46
569.046	35184.84
569.255	35151.6
569.464	35121.71
569.673	35089.04
569.882	35054.17
570.091	35022.24
570.3	35006.95
570.509	34980.89
570.718	34967.84
570.927	34953.35
571.135	34941.88
571.344	34928.37
571.553	34907.51
571.762	34908.37
571.971	34908.17
572.18	34904.93
572.388	34897.98
572.597	34870.4
572.806	34851.89
573.014	34834.73
573.223	34811.22
573.432	34786.38
573.641	34763.53
573.849	34748.13
574.058	34708.22
574.266	34670.55
574.475	34643.26
574.684	34618.95
574.892	34606.24
575.101	34589.57
575.309	34568.89
575.518	34547.62
575.726	34532.95
575.935	34521.28
576.143	34505.73
576.352	34490.62
576.56	34479.4
576.769	34453.91
576.977	34439.98
577.186	34421
577.394	34398.8
577.602	34371.15
577.811	34355.09
578.019	34326.86
578.228	34294.57
578.436	34266.97
578.644	34244.24
578.852	34218.88
579.061	34194.29
579.269	34166.13
579.477	34149.75
579.685	34131.8
579.894	34101.48
580.102	34080.57
580.31	34055.95
580.518	34040.91
580.726	34019.17
580.935	34010.57
581.143	33991.66
581.351	33970.31
581.559	33943.37
581.767	33908.51
581.975	33880.26
582.183	33863.8
582.391	33833.35
582.599	33813.57
582.807	33784.64
583.015	33759.38
583.223	33726.17
583.431	33702.86
583.639	33675.15
583.847	33651
584.055	33625.42
584.263	33605.69
584.471	33583.06
584.678	33562.84
584.886	33538.13
585.094	33516.31
585.302	33488.91
585.51	33460.15
585.718	33432.71
585.925	33407.51
586.133	33388.13
586.341	33374.24
586.549	33352.75
586.756	33328.2
586.964	33306.08
587.172	33275.51
587.379	33253.6
587.587	33235.98
587.795	33212.4
588.002	33178.49
588.21	33155.77
588.417	33129.93
588.625	33080.93
588.833	33044.28
589.04	33005.73
589.248	32973.37
589.455	32960.62
589.663	32927.71
589.87	32904.98
590.078	32881.06
590.285	32860.09
590.492	32828.82
590.7	32806.35
590.907	32797.77
591.115	32774.62
591.322	32761.35
591.529	32732.49
591.737	32691.24
591.944	32665.93
592.151	32621.62
592.359	32593.69
592.566	32563.04
592.773	32534.53
592.981	32500.98
593.188	32450.22
593.395	32423.18
593.602	32393.8
593.809	32368.62
594.017	32342.89
594.224	32311.91
594.431	32286.73
594.638	32250.08
594.845	32216.46
595.052	32198.86
595.259	32165.09
595.466	32151.97
595.673	32123.73
595.88	32095.28
596.088	32071.6
596.295	32044.18
596.502	32009.97
596.709	31986.48
596.915	31957.82
597.122	31934.58
597.329	31899.18
597.536	31875.2
597.743	31845.17
597.95	31812.11
598.157	31770.73
598.364	31725.97
598.571	31670.26
598.777	31632.51
598.984	31574.84
599.191	31518.42
599.398	31461.97
599.605	31407.73
599.811	31347.33
600.018	31287.24
600.225	31235.66
600.431	31189.31
600.638	31146.57
600.845	31117.37
601.052	31076.42
601.258	31052.28
601.465	31012.31
601.671	30956.86
601.878	30885.64
602.085	30799.31
602.291	30707.13
602.498	30584.38
602.704	30440.71
602.911	30279.42
603.117	30095.46
603.324	29893.4
603.53	29670.4
603.737	29444.15
603.943	29215.95
604.15	28977.44
604.356	28738.42
604.562	28485.18
604.769	28229.4
604.975	27973.84
605.181	27712
605.388	27460.62
605.594	27197.29
605.8	26931.48
606.007	26674.95
606.213	26408.93
606.419	26141
606.625	25863.35
606.832	25594.33
607.038	25333.24
607.244	25066.77
607.45	24806.08
607.656	24531.86
607.863	24268.64
608.069	23995.29
608.275	23725.62
608.481	23453.15
608.687	23177.91
608.893	22909.89
609.099	22643.04
609.305	22369.66
609.511	22095.35
609.717	21812.69
609.923	21532.75
610.129	21242.35
610.335	20955.97
610.541	20662.24
610.747	20367.11
610.953	20075.64
611.159	19781.6
611.365	19478.18
611.571	19173.95
611.776	18873.93
611.982	18567.84
612.188	18257.95
612.394	17951.77
612.6	17647.82
612.806	17333.18
613.011	17021.46
613.217	16712.97
613.423	16408.26
613.628	16100.82
613.834	15798.51
614.04	15495.91
614.246	15205.82
614.451	14921.8
614.657	14645.84
614.862	14373.44
615.068	14114.71
615.274	13858.4
615.479	13606.35
615.685	13354.35
615.89	13111.69
616.096	12863.55
616.301	12624.17
616.507	12373.31
616.712	12128.2
616.918	11879.15
617.123	11624.55
617.329	11365.49
617.534	11101.58
617.74	10831.31
617.945	10570.51
618.15	10289.53
618.356	9858.71
618.561	9064.09
618.766	8110.26
618.972	7121.26
619.177	6158.57
619.382	5221.75
619.588	4308.33
619.793	3768.03
619.998	3138.12
620.203	2371.54
620.408	1446.77
620.614	537.87
