Data from test1_MAYP1115451__14__10-17-14-083.txt Node

Date: Wed Jun 12 10:17:14 MDT 2024
User: Modes Lab
Spectrometer: MAYP111545
Trigger mode: 0
Integration Time (sec): 8.000000E-3
Scans to average: 5
Electric dark correction enabled: true
Nonlinearity correction enabled: false
Boxcar width: 5
XAxis mode: Wavelengths
Number of Pixels in Spectrum: 2068
>>>>>Begin Spectral Data<<<<<
165.214	161.13
165.449	161
165.683	170.25
165.918	178.89
166.152	184.84
166.387	189.91
166.621	121.78
166.856	159.87
167.09	178.51
167.325	202.02
167.559	218.11
167.794	232.87
168.028	241.25
168.263	242.11
168.497	242.31
168.732	243.85
168.966	245.8
169.2	247.65
169.435	249.65
169.669	251.09
169.903	252.73
170.138	255.36
170.372	256.89
170.606	257.84
170.841	260.13
171.075	261.73
171.309	262.49
171.544	263.27
171.778	265.24
172.012	266.4
172.246	268
172.48	270.44
172.715	272.2
172.949	274.09
173.183	275.62
173.417	276.53
173.651	278.25
173.885	279.58
174.119	280.6
174.354	280.65
174.588	280.82
174.822	281.15
175.056	281.53
175.29	281.24
175.524	280.64
175.758	281.22
175.992	282.44
176.226	281.75
176.46	281.09
176.694	282.4
176.928	283.2
177.162	284.16
177.396	284.73
177.63	285.13
177.864	285.95
178.097	286.73
178.331	287.44
178.565	287.62
178.799	289.44
179.033	292.09
179.267	292.07
179.5	292.8
179.734	294.16
179.968	295.6
180.202	295.53
180.436	296.38
180.669	297.64
180.903	298.15
181.137	299.22
181.371	300.2
181.604	301.05
181.838	303.62
182.072	305.04
182.305	306
182.539	306.67
182.772	308.24
183.006	309.35
183.24	310.56
183.473	314.53
183.707	315.42
183.94	316.96
184.174	317.42
184.408	317.56
184.641	318.75
184.875	320.29
185.108	321.49
185.342	323.13
185.575	324.87
185.808	326.4
186.042	325.93
186.275	327.75
186.509	327.85
186.742	330.15
186.976	330.89
187.209	331.35
187.442	331.33
187.676	333.69
187.909	334.67
188.142	335.02
188.376	335.71
188.609	336.85
188.842	337.62
189.076	339.44
189.309	340.8
189.542	341.56
189.775	344.45
190.009	346.98
190.242	347.62
190.475	349.76
190.708	352.16
190.941	354.64
191.174	355.85
191.408	357.62
191.641	358.18
191.874	359.4
192.107	362.8
192.34	363.47
192.573	365.85
192.806	368.04
193.039	368.55
193.272	370.95
193.505	372.58
193.738	375.29
193.971	377.53
194.204	380.44
194.437	381.25
194.67	382.51
194.903	383.73
195.136	384.22
195.369	386.64
195.602	389.31
195.835	390.02
196.068	392.13
196.301	392.82
196.533	394.27
196.766	396.33
196.999	399.44
197.232	401.11
197.465	403.84
197.698	406.89
197.93	408.71
198.163	411.16
198.396	413.29
198.629	414.42
198.861	416.73
199.094	418.96
199.327	421.22
199.559	423
199.792	425.24
200.025	428.22
200.257	429.69
200.49	432.35
200.723	434.29
200.955	436.76
201.188	439.65
201.42	441.91
201.653	444.11
201.886	446.31
202.118	449.38
202.351	451.62
202.583	453.76
202.816	456.13
203.048	457.47
203.281	459.36
203.513	461.36
203.745	463.56
203.978	466.36
204.21	468.04
204.443	471.09
204.675	472.58
204.907	475
205.14	477.75
205.372	479.89
205.605	481.58
205.837	483.49
206.069	486.11
206.302	488.27
206.534	489.62
206.766	492.73
206.998	493.29
207.231	495.85
207.463	498.22
207.695	499.22
207.927	502.27
208.159	504.96
208.392	506.84
208.624	509.25
208.856	511.76
209.088	514.35
209.32	516.09
209.552	518.36
209.784	519.82
210.017	521.25
210.249	522.36
210.481	523.89
210.713	524.82
210.945	527.96
211.177	528.16
211.409	530.02
211.641	532.45
211.873	534
212.105	535.67
212.337	537.38
212.569	539.29
212.801	541.75
213.033	543.13
213.264	546.16
213.496	547.45
213.728	550.44
213.96	551.64
214.192	552.64
214.424	554.71
214.656	556.82
214.887	559.09
215.119	560.78
215.351	562.85
215.583	564.73
215.815	566.4
216.046	569.36
216.278	570.62
216.51	571.98
216.741	574.25
216.973	576.71
217.205	577.75
217.436	579.38
217.668	581.73
217.9	583.18
218.131	583.53
218.363	584.22
218.595	584.35
218.826	587.16
219.058	588.67
219.289	588.87
219.521	590.36
219.752	591.89
219.984	592.49
220.215	594.07
220.447	595.31
220.678	597.09
220.91	598.78
221.141	600.02
221.373	599.33
221.604	600.02
221.836	601.45
222.067	601.6
222.298	603.02
222.53	604.6
222.761	604.36
222.993	605.58
223.224	607.93
223.455	607.84
223.686	608.24
223.918	609.65
224.149	611.11
224.38	611.56
224.612	612.62
224.843	613.55
225.074	614.15
225.305	614.15
225.536	615.02
225.768	615.75
225.999	617.18
226.23	618.47
226.461	620.65
226.692	620.78
226.923	621.49
227.155	622.76
227.386	622.87
227.617	623.05
227.848	623.65
228.079	624.58
228.31	624.91
228.541	624.85
228.772	624.36
229.003	622.62
229.234	624.24
229.465	625.38
229.696	624.25
229.927	624.58
230.158	623.82
230.389	624.62
230.62	622.75
230.85	621.55
231.081	622.64
231.312	623.35
231.543	623.27
231.774	621.18
232.005	621.2
232.236	621.75
232.466	621.15
232.697	621.16
232.928	620.27
233.159	621.62
233.389	622.16
233.62	621.04
233.851	621.73
234.082	620.82
234.312	622.27
234.543	621.13
234.774	619.49
235.004	619.67
235.235	620.76
235.466	620.78
235.696	619.18
235.927	617.71
236.157	617.67
236.388	616.78
236.618	619.51
236.849	618.95
237.08	619.89
237.31	621.82
237.541	622.02
237.771	621.55
238.002	621.24
238.232	621.44
238.463	623.56
238.693	623.96
238.923	623.51
239.154	621.38
239.384	620.45
239.615	618.64
239.845	616.24
240.075	615.24
240.306	615.05
240.536	614.24
240.766	615.49
240.997	613.55
241.227	614.07
241.457	612.18
241.687	613.07
241.918	613.02
242.148	613.09
242.378	613.51
242.608	612.91
242.839	612.6
243.069	612.36
243.299	611.35
243.529	612.4
243.759	610.36
243.989	611.76
244.22	609.6
244.45	610.35
244.68	608.27
244.91	607.45
245.14	608.29
245.37	606.8
245.6	607.25
245.83	604.58
246.06	602.44
246.29	602.33
246.52	600.93
246.75	600.96
246.98	599.95
247.21	600.55
247.44	600.38
247.67	600.22
247.9	600.89
248.13	601.22
248.359	601.2
248.589	599.82
248.819	599.33
249.049	598.56
249.279	598.13
249.509	597.31
249.738	597.15
249.968	596.29
250.198	593.87
250.428	593.76
250.657	592.29
250.887	593.02
251.117	594.07
251.347	593.16
251.576	592.51
251.806	591.15
252.036	589.53
252.265	588.96
252.495	588.62
252.725	588.55
252.954	587.49
253.184	586.98
253.413	585.8
253.643	585.38
253.873	584.91
254.102	585.42
254.332	586.76
254.561	586.96
254.791	587.05
255.02	587.35
255.25	586.05
255.479	585.35
255.708	584.27
255.938	583.36
256.167	581.89
256.397	581.71
256.626	580.42
256.856	579.27
257.085	579.09
257.314	577.55
257.544	576.04
257.773	576.04
258.002	575.45
258.232	575.36
258.461	574.51
258.69	573.78
258.919	573.09
259.149	573.69
259.378	573
259.607	571.67
259.836	571.51
260.065	570.11
260.295	570.22
260.524	569.33
260.753	568.93
260.982	567.89
261.211	567.98
261.44	567.2
261.669	564.75
261.899	563.76
262.128	562.35
262.357	561.15
262.586	561.22
262.815	558.8
263.044	558.47
263.273	559.91
263.502	559.55
263.731	558.93
263.96	558.22
264.189	557.82
264.418	555.93
264.646	555.84
264.875	555.11
265.104	553.04
265.333	553.67
265.562	552.45
265.791	548.53
266.02	547.75
266.249	545.62
266.477	544.76
266.706	543.55
266.935	543.11
267.164	542.24
267.393	541.64
267.621	543.45
267.85	542.67
268.079	542.24
268.307	542.18
268.536	542.13
268.765	542.35
268.993	540.85
269.222	540.33
269.451	540.85
269.679	540.98
269.908	541.96
270.137	539.67
270.365	538.6
270.594	537.62
270.822	537.49
271.051	538.18
271.279	538.51
271.508	539.27
271.736	540.84
271.965	541.67
272.193	542.05
272.422	540.71
272.65	541.69
272.879	542.15
273.107	541.82
273.336	541.04
273.564	539.89
273.792	539.76
274.021	538.67
274.249	536.95
274.477	534.95
274.706	533.45
274.934	532.4
275.162	531.6
275.391	529.51
275.619	528.91
275.847	527.25
276.075	526.25
276.304	524.29
276.532	523.36
276.76	522.22
276.988	520.42
277.216	519.98
277.445	519.04
277.673	518.44
277.901	519.62
278.129	519.62
278.357	519.78
278.585	519.62
278.813	520.11
279.041	519.98
279.269	519.6
279.497	520.93
279.725	519.73
279.954	519.05
280.182	517.82
280.41	517.09
280.637	515.76
280.865	514.91
281.093	513.22
281.321	511.09
281.549	510.2
281.777	510.38
282.005	509.04
282.233	509.49
282.461	509.76
282.689	509.42
282.916	508.67
283.144	508.47
283.372	508.07
283.6	509.69
283.828	509.6
284.055	508.96
284.283	508.67
284.511	508.22
284.739	506.58
284.966	506.49
285.194	505.95
285.422	503.82
285.649	504.24
285.877	503.67
286.105	501.78
286.332	501.25
286.56	501.87
286.788	502
287.015	501.25
287.243	500.89
287.47	499.16
287.698	498.58
287.925	499.18
288.153	497.87
288.381	497.51
288.608	496.73
288.836	496.55
289.063	495.58
289.29	493.29
289.518	493.25
289.745	492.62
289.973	492.35
290.2	493.04
290.428	492.24
290.655	491.55
290.882	491.2
291.11	491.31
291.337	489.73
291.564	488.89
291.792	489.36
292.019	488.35
292.246	488.16
292.473	487.84
292.701	486.22
292.928	485.53
293.155	484.2
293.382	482.95
293.61	481.95
293.837	481.89
294.064	480.38
294.291	479.44
294.518	477.65
294.745	477.09
294.972	476.82
295.2	475.51
295.427	477.29
295.654	477.78
295.881	477.96
296.108	476.8
296.335	476.53
296.562	476.76
296.789	475.98
297.016	476.78
297.243	477.15
297.47	476
297.697	474.58
297.924	471.95
298.151	470.96
298.378	471.16
298.604	470.49
298.831	470.98
299.058	471.96
299.285	472.11
299.512	471.55
299.739	469.8
299.966	470.09
300.192	471.11
300.419	470.93
300.646	471.2
300.873	470.09
301.099	471.22
301.326	470.07
301.553	468.73
301.78	468.27
302.006	468.4
302.233	468.24
302.46	467.25
302.686	465.93
302.913	466.4
303.14	464.47
303.366	463.56
303.593	462.53
303.819	462.58
304.046	461.4
304.272	461.09
304.499	460.4
304.725	460.31
304.952	459.78
305.179	459.73
305.405	459.04
305.631	459.71
305.858	459.49
306.084	459.02
306.311	458.2
306.537	457.55
306.764	457.71
306.99	456.96
307.216	456.62
307.443	456.2
307.669	456.38
307.895	455.15
308.122	454.6
308.348	454.65
308.574	455.11
308.801	454.78
309.027	455.02
309.253	453.55
309.479	454.13
309.706	453.84
309.932	453.76
310.158	452.78
310.384	453.11
310.61	452.76
310.837	452.11
311.063	452.42
311.289	452.42
311.515	452.58
311.741	451.98
311.967	451.82
312.193	452.38
312.419	453
312.645	453.76
312.871	453.45
313.097	453.45
313.323	454.13
313.549	453.55
313.775	453.91
314.001	454.05
314.227	454.69
314.453	454.38
314.679	454.96
314.905	454.33
315.131	455.29
315.357	456.73
315.583	457.71
315.809	456.84
316.034	457.05
316.26	457.11
316.486	458.05
316.712	458.69
316.938	458.95
317.163	459.35
317.389	459.87
317.615	459.65
317.841	460.2
318.066	460.42
318.292	462.75
318.518	462.91
318.743	463.58
318.969	464
319.195	464.8
319.42	464.6
319.646	464.33
319.872	466.04
320.097	467.42
320.323	468.05
320.548	469.27
320.774	470.11
320.999	471.13
321.225	471.42
321.45	471.84
321.676	473.33
321.901	475.85
322.127	477.44
322.352	478.09
322.578	480.02
322.803	480.67
323.029	481.38
323.254	483.2
323.479	485.31
323.705	487.33
323.93	489.27
324.155	490.91
324.381	492.6
324.606	494.44
324.831	497.44
325.057	498.55
325.282	500.02
325.507	503.02
325.732	504.15
325.958	506.31
326.183	508.85
326.408	510.78
326.633	514.04
326.858	516.69
327.084	518.71
327.309	520.27
327.534	523.71
327.759	527.38
327.984	529.87
328.209	533.6
328.434	537
328.659	540
328.884	542.62
329.109	545.56
329.334	548.51
329.559	551.45
329.784	554.95
330.009	556.65
330.234	560.11
330.459	563.16
330.684	565.85
330.909	568.58
331.134	571.76
331.359	576.95
331.584	578.91
331.809	582.24
332.034	586.67
332.259	590.78
332.483	595.89
332.708	600.31
332.933	605.35
333.158	609.16
333.383	614.56
333.607	619.75
333.832	624.42
334.057	630
334.282	635.84
334.506	642.15
334.731	647.47
334.956	652.15
335.18	657.67
335.405	661.89
335.63	669.98
335.854	675.29
336.079	680.84
336.303	685.22
336.528	691.6
336.753	697.95
336.977	704.16
337.202	710.53
337.426	717.64
337.651	724.45
337.875	733.13
338.1	739
338.324	746.09
338.549	751.73
338.773	759.78
338.997	766.22
339.222	772.11
339.446	778.02
339.671	784.31
339.895	790.96
340.119	797.82
340.344	803.84
340.568	809.82
340.792	817.56
341.017	827.38
341.241	836.55
341.465	844.95
341.689	854.78
341.914	862.36
342.138	870.78
342.362	880.56
342.586	889.38
342.811	897.71
343.035	906.22
343.259	913.02
343.483	921.56
343.707	928.65
343.931	937.75
344.155	944.33
344.38	954.15
344.604	963.22
344.828	971.15
345.052	978.98
345.276	988.87
345.5	997.75
345.724	1006.8
345.948	1015.27
346.172	1026.85
346.396	1036.69
346.62	1048.15
346.844	1057.53
347.068	1067.47
347.292	1079.25
347.515	1090
347.739	1102.02
347.963	1112.75
348.187	1122.53
348.411	1133.73
348.635	1142.42
348.859	1152.73
349.082	1162.93
349.306	1175.47
349.53	1187.22
349.754	1196.33
349.977	1207.2
350.201	1215.87
350.425	1226.4
350.649	1238.69
350.872	1250
351.096	1260.42
351.32	1270.89
351.543	1282.56
351.767	1291.6
351.99	1302.45
352.214	1313.82
352.438	1324.25
352.661	1335.05
352.885	1347.75
353.108	1359.27
353.332	1369.91
353.555	1381.82
353.779	1392.89
354.002	1404.02
354.226	1416.15
354.449	1427.04
354.673	1438.13
354.896	1450.02
355.12	1461.73
355.343	1473.71
355.566	1486.4
355.79	1498.8
356.013	1512.64
356.237	1525.18
356.46	1537.6
356.683	1550.76
356.907	1563.27
357.13	1577.22
357.353	1591.56
357.576	1605.56
357.8	1618.4
358.023	1631.93
358.246	1643.75
358.469	1655.62
358.693	1667.71
358.916	1679.69
359.139	1691.89
359.362	1702.11
359.585	1714.15
359.808	1724.55
360.031	1736.33
360.255	1749.55
360.478	1760.04
360.701	1774.51
360.924	1785.62
361.147	1799.47
361.37	1814.44
361.593	1829.09
361.816	1845.36
362.039	1858.11
362.262	1871.47
362.485	1884.35
362.708	1897.38
362.931	1911.69
363.154	1925.47
363.377	1940.89
363.599	1954.31
363.822	1967.4
364.045	1979.02
364.268	1990.93
364.491	2006.13
364.714	2023.04
364.936	2038.4
365.159	2050.27
365.382	2064.24
365.605	2076.71
365.828	2093.44
366.05	2107.76
366.273	2120.02
366.496	2135.51
366.718	2153.58
366.941	2168.42
367.164	2181.89
367.386	2199.27
367.609	2217.91
367.832	2235.29
368.054	2251.85
368.277	2264.73
368.5	2283.49
368.722	2301.73
368.945	2319.35
369.167	2336.15
369.39	2352.16
369.612	2368.31
369.835	2383.47
370.057	2399.98
370.28	2417.6
370.502	2434.2
370.725	2452.49
370.947	2466.15
371.169	2485.16
371.392	2503.02
371.614	2516.69
371.837	2532.84
372.059	2549.02
372.281	2567.87
372.504	2585.18
372.726	2597.89
372.948	2616.75
373.171	2634.85
373.393	2653.58
373.615	2669
373.837	2684.38
374.06	2704.31
374.282	2724.82
374.504	2744.69
374.726	2759.6
374.948	2777
375.17	2797.31
375.393	2815.71
375.615	2832.33
375.837	2851.78
376.059	2872.27
376.281	2889.53
376.503	2908.51
376.725	2924.2
376.947	2942.44
377.169	2963.04
377.391	2981.45
377.613	3000.85
377.835	3020.56
378.057	3041.04
378.279	3061.04
378.501	3080.4
378.723	3104.15
378.945	3125.16
379.167	3148.76
379.389	3172.58
379.611	3197.16
379.833	3220.05
380.054	3244.13
380.276	3269.15
380.498	3292.51
380.72	3318.8
380.942	3340.15
381.163	3364.16
381.385	3391.02
381.607	3416.31
381.829	3436.05
382.05	3457.91
382.272	3487.67
382.494	3515.36
382.716	3537.13
382.937	3562.18
383.159	3583.75
383.381	3612.13
383.602	3639.56
383.824	3666.24
384.045	3690.05
384.267	3721.38
384.488	3747.67
384.71	3768.8
384.932	3794.36
385.153	3821.07
385.375	3849.76
385.596	3877.71
385.818	3905.24
386.039	3929.27
386.261	3952.98
386.482	3983.6
386.703	4010.56
386.925	4042.58
387.146	4070.33
387.368	4096.49
387.589	4125
387.81	4150.73
388.032	4178.82
388.253	4207.35
388.474	4235.96
388.696	4262.69
388.917	4290.76
389.138	4318.44
389.359	4342.18
389.581	4372.73
389.802	4402.82
390.023	4431.69
390.244	4460.84
390.465	4491.67
390.687	4522.82
390.908	4553.73
391.129	4587.85
391.35	4618.84
391.571	4651.45
391.792	4682.58
392.013	4714.67
392.234	4747.05
392.455	4780.02
392.677	4813.8
392.898	4842.31
393.119	4873.07
393.34	4903.69
393.561	4935.11
393.782	4964.85
394.003	4997.78
394.223	5031.02
394.444	5060.11
394.665	5092.33
394.886	5127.53
395.107	5163.16
395.328	5199.55
395.549	5231.24
395.77	5264.65
395.99	5299.53
396.211	5330.71
396.432	5362.24
396.653	5396.6
396.874	5433.62
397.094	5463.98
397.315	5495
397.536	5525.22
397.757	5557.8
397.977	5591.96
398.198	5625.75
398.419	5654.95
398.639	5688.2
398.86	5720.15
399.081	5751.55
399.301	5783.25
399.522	5819.87
399.742	5855.22
399.963	5883.31
400.184	5919.09
400.404	5952.78
400.625	5986.78
400.845	6023.96
401.066	6057.76
401.286	6090.4
401.507	6129.05
401.727	6163.51
401.948	6197.45
402.168	6228.45
402.388	6266.16
402.609	6297.78
402.829	6333.96
403.05	6368.44
403.27	6399.96
403.49	6437.73
403.711	6476
403.931	6506.73
404.151	6541.78
404.372	6573.42
404.592	6607.75
404.812	6643.55
405.032	6678.15
405.253	6706.91
405.473	6742.58
405.693	6778.47
405.913	6810.11
406.133	6844.16
406.353	6881.71
406.574	6920.15
406.794	6952.71
407.014	6989.38
407.234	7028.69
407.454	7066.07
407.674	7106.05
407.894	7140.22
408.114	7179.31
408.334	7219.84
408.554	7252.42
408.774	7286.33
408.994	7321.07
409.214	7359.49
409.434	7395.96
409.654	7431.65
409.874	7467.02
410.094	7501.55
410.314	7542.2
410.534	7574.85
410.754	7609.35
410.974	7650.25
411.193	7689.56
411.413	7725.45
411.633	7767.65
411.853	7805.98
412.073	7840.36
412.292	7878.24
412.512	7922.04
412.732	7958.13
412.952	7995.22
413.171	8036.78
413.391	8075.65
413.611	8120.09
413.831	8160.47
414.05	8199.15
414.27	8240.75
414.489	8282.27
414.709	8323.55
414.929	8364.13
415.148	8409.47
415.368	8455.47
415.587	8498.75
415.807	8545.05
416.026	8586.91
416.246	8630.15
416.465	8676.24
416.685	8716.65
416.904	8766.53
417.124	8813.15
417.343	8856.05
417.563	8903.09
417.782	8951.16
418.002	8998.44
418.221	9042.16
418.44	9083.44
418.66	9128.78
418.879	9169.98
419.098	9212.36
419.318	9252.04
419.537	9298.27
419.756	9345.67
419.976	9385.91
420.195	9428.45
420.414	9464.44
420.633	9509.49
420.853	9554.96
421.072	9608.18
421.291	9652.45
421.51	9700.53
421.729	9743.82
421.948	9789.76
422.168	9828.93
422.387	9872.67
422.606	9918.76
422.825	9968.2
423.044	10011.33
423.263	10055.78
423.482	10088.71
423.701	10127.84
423.92	10180.33
424.139	10226.16
424.358	10266.69
424.577	10315.95
424.796	10356.49
425.015	10401.53
425.234	10440.65
425.453	10486.75
425.672	10532.49
425.891	10576.64
426.11	10630.87
426.328	10668.8
426.547	10716.16
426.766	10761.35
426.985	10805.85
427.204	10855.09
427.422	10899.65
427.641	10952.82
427.86	11001.71
428.079	11048.45
428.297	11103.58
428.516	11151.4
428.735	11202.58
428.954	11245.67
429.172	11293.56
429.391	11341.27
429.61	11392.8
429.828	11436.64
430.047	11489.51
430.265	11533.56
430.484	11580.16
430.703	11622.2
430.921	11667.95
431.14	11713.36
431.358	11764.62
431.577	11810.09
431.795	11857.55
432.014	11906.96
432.232	11957.78
432.451	12006.89
432.669	12059.45
432.887	12107.31
433.106	12154.73
433.324	12198.07
433.543	12243.78
433.761	12288.55
433.979	12338.15
434.198	12387.18
434.416	12431
434.634	12479.71
434.853	12514.87
435.071	12558.56
435.289	12604.62
435.507	12656.29
435.726	12701.38
435.944	12747.91
436.162	12792.31
436.38	12839.65
436.598	12885.75
436.817	12929.44
437.035	12971.29
437.253	13020.4
437.471	13065.91
437.689	13115.85
437.907	13157.58
438.125	13212.67
438.343	13263.96
438.561	13312.85
438.78	13368
438.998	13416.58
439.216	13469.78
439.434	13521.36
439.652	13576.89
439.869	13625.2
440.087	13672.04
440.305	13722.11
440.523	13766.82
440.741	13814.22
440.959	13872.2
441.177	13913.67
441.395	13956.09
441.613	14003.64
441.831	14045.29
442.048	14087.75
442.266	14135.35
442.484	14183.89
442.702	14235.44
442.919	14285.04
443.137	14338.67
443.355	14382.49
443.573	14435.89
443.79	14487.07
444.008	14531.47
444.226	14583.91
444.443	14631.95
444.661	14678.82
444.879	14726.58
445.096	14771.64
445.314	14822.78
445.532	14865.78
445.749	14917.05
445.967	14959.16
446.184	15006.25
446.402	15046.78
446.619	15093.13
446.837	15140.35
447.054	15189.69
447.272	15233.31
447.489	15278.58
447.707	15326.6
447.924	15375.53
448.141	15419.87
448.359	15462.49
448.576	15512.91
448.794	15566.98
449.011	15621.38
449.228	15672.09
449.446	15723.27
449.663	15774.67
449.88	15822.27
450.098	15869.15
450.315	15917.24
450.532	15970.27
450.749	16024.64
450.967	16070.69
451.184	16119.18
451.401	16166.93
451.618	16209.33
451.835	16260.65
452.052	16308.11
452.27	16356.96
452.487	16404.67
452.704	16447.15
452.921	16491
453.138	16537.33
453.355	16582.15
453.572	16634.55
453.789	16679.56
454.006	16732.78
454.223	16769.95
454.44	16817.67
454.657	16869.51
454.874	16908.33
455.091	16955.25
455.308	17005.2
455.525	17054.42
455.742	17102.53
455.959	17149.07
456.176	17200.51
456.393	17249.55
456.609	17299.13
456.826	17346.75
457.043	17395.33
457.26	17456.42
457.477	17506.89
457.693	17540.71
457.91	17580.45
458.127	17627.55
458.344	17665.18
458.56	17699.38
458.777	17736.84
458.994	17775.29
459.21	17813.87
459.427	17846.27
459.644	17873.42
459.86	17901.95
460.077	17940.38
460.294	17975.47
460.51	18004.36
460.727	18047.84
460.943	18089.27
461.16	18123.87
461.376	18160.84
461.593	18194.78
461.809	18233.55
462.026	18276.16
462.242	18321.09
462.459	18358.89
462.675	18402.56
462.892	18444.15
463.108	18475.62
463.324	18513.16
463.541	18557.44
463.757	18601.56
463.974	18642.27
464.19	18685.93
464.406	18727.8
464.623	18770.84
464.839	18820.84
465.055	18868.8
465.271	18921.11
465.488	18963.44
465.704	19013.96
465.92	19056.93
466.136	19104.09
466.353	19163.84
466.569	19207.07
466.785	19259.18
467.001	19317.42
467.217	19373.45
467.433	19430.75
467.649	19486.44
467.865	19553.82
468.082	19614.07
468.298	19682.67
468.514	19751.55
468.73	19812.27
468.946	19883.73
469.162	19951.91
469.378	20014.98
469.594	20076.82
469.81	20138.36
470.026	20202.8
470.242	20269.33
470.457	20338.96
470.673	20401.89
470.889	20461.31
471.105	20526.67
471.321	20597.15
471.537	20659.42
471.753	20722
471.968	20794.82
472.184	20862.36
472.4	20931.93
472.616	21004.07
472.832	21070.22
473.047	21138.4
473.263	21213.11
473.479	21286.36
473.694	21354.04
473.91	21427.75
474.126	21507.16
474.341	21585
474.557	21661.95
474.773	21735.35
474.988	21794.55
475.204	21869.27
475.42	21947.58
475.635	22015.44
475.851	22080.84
476.066	22151.85
476.282	22221.31
476.497	22285.38
476.713	22344.85
476.928	22409.53
477.144	22469.93
477.359	22545.75
477.575	22605.27
477.79	22671
478.005	22735.38
478.221	22792.24
478.436	22851.33
478.651	22905.42
478.867	22965.22
479.082	23025.71
479.297	23079.76
479.513	23136.69
479.728	23188.09
479.943	23242.04
480.159	23293.42
480.374	23349.07
480.589	23411.51
480.804	23468.53
481.019	23518.85
481.235	23569.33
481.45	23619.22
481.665	23672.8
481.88	23727.33
482.095	23783.44
482.31	23835.69
482.525	23883.75
482.741	23929.62
482.956	23977.15
483.171	24026.18
483.386	24083.85
483.601	24132.36
483.816	24178.16
484.031	24219.56
484.246	24262.24
484.461	24302.78
484.676	24346.73
484.891	24390.98
485.105	24436.33
485.32	24477.49
485.535	24515.16
485.75	24555.96
485.965	24596.91
486.18	24635.07
486.395	24668.91
486.609	24714.95
486.824	24753
487.039	24791.05
487.254	24823.24
487.469	24851.95
487.683	24886.2
487.898	24927.67
488.113	24966.58
488.327	25000.35
488.542	25041.22
488.757	25087.04
488.972	25123.22
489.186	25166.27
489.401	25204.05
489.615	25247.65
489.83	25293.53
490.045	25334.16
490.259	25368.4
490.474	25401.78
490.688	25439.27
490.903	25469.67
491.117	25507.91
491.332	25535.64
491.546	25561.75
491.761	25598.84
491.975	25623.27
492.19	25653.25
492.404	25685.13
492.618	25720.8
492.833	25752.29
493.047	25779.69
493.262	25810.35
493.476	25836.31
493.69	25869.29
493.905	25900.18
494.119	25929.44
494.333	25961.29
494.547	25992.85
494.762	26011.82
494.976	26035.56
495.19	26060.76
495.404	26089.2
495.619	26123.15
495.833	26147.96
496.047	26172.35
496.261	26190.58
496.475	26196.35
496.689	26206.44
496.903	26211.42
497.117	26215.98
497.332	26215.07
497.546	26204.07
497.76	26194.96
497.974	26175.24
498.188	26171.24
498.402	26156.98
498.616	26148.27
498.83	26140.38
499.044	26142.85
499.258	26136.35
499.472	26150.22
499.685	26146.73
499.899	26158.24
500.113	26169.29
500.327	26184.07
500.541	26190.87
500.755	26212.82
500.969	26227.29
501.183	26248.42
501.396	26258.8
501.61	26279.44
501.824	26285.75
502.038	26311.36
502.251	26336.98
502.465	26360
502.679	26384.42
502.892	26401
503.106	26409.67
503.32	26430.51
503.533	26453.82
503.747	26471.55
503.961	26492.64
504.174	26520.84
504.388	26536.55
504.602	26558.36
504.815	26590.67
505.029	26628.05
505.242	26677.02
505.456	26725.51
505.669	26771.96
505.883	26821.11
506.096	26877
506.31	26932.96
506.523	26990.25
506.736	27048.65
506.95	27104.11
507.163	27154.05
507.377	27203.95
507.59	27249.85
507.803	27312.07
508.017	27377.67
508.23	27435.93
508.443	27496.91
508.657	27562.62
508.87	27628.25
509.083	27700.36
509.296	27766.07
509.51	27847.95
509.723	27927.45
509.936	28007.95
510.149	28084.18
510.363	28163.45
510.576	28248.45
510.789	28342.62
511.002	28438.93
511.215	28534.58
511.428	28638.76
511.641	28746.6
511.854	28836.51
512.067	28936.16
512.28	29038.16
512.493	29144.64
512.707	29246.6
512.92	29351.09
513.132	29450.4
513.345	29540.69
513.558	29642.64
513.771	29743.93
513.984	29842.25
514.197	29954.82
514.41	30063.91
514.623	30169.91
514.836	30269.85
515.049	30380
515.262	30484.33
515.474	30583.16
515.687	30692.09
515.9	30781.09
516.113	30876.15
516.325	30976.29
516.538	31059.56
516.751	31154.58
516.964	31247.02
517.176	31329.33
517.389	31409.45
517.602	31489.24
517.814	31574.58
518.027	31657.91
518.24	31738.49
518.452	31820.6
518.665	31895.35
518.877	31984.56
519.09	32051.76
519.303	32124.13
519.515	32202
519.728	32268.27
519.94	32338.51
520.153	32403.27
520.365	32462.85
520.578	32534.18
520.79	32590.51
521.002	32651.18
521.215	32695.44
521.427	32751
521.64	32806.71
521.852	32858.89
522.064	32916.62
522.277	32968.38
522.489	33027.8
522.701	33084.27
522.914	33136.33
523.126	33193.27
523.338	33246.85
523.551	33306.45
523.763	33355.89
523.975	33407.93
524.187	33462.65
524.399	33505.87
524.612	33550.2
524.824	33593.65
525.036	33627.78
525.248	33668.25
525.46	33699.27
525.672	33740.2
525.884	33772.96
526.096	33800.53
526.308	33823.89
526.521	33845.53
526.733	33880.07
526.945	33913.53
527.157	33938.64
527.369	33977.33
527.581	34012.09
527.793	34049.36
528.004	34060.6
528.216	34094.84
528.428	34137.58
528.64	34179.51
528.852	34215.15
529.064	34245.85
529.276	34274.25
529.488	34300.71
529.699	34321.87
529.911	34344.36
530.123	34365.36
530.335	34402.2
530.547	34422.87
530.758	34446.95
530.97	34465.13
531.182	34491.2
531.393	34522.71
531.605	34552.31
531.817	34588.09
532.029	34612.29
532.24	34638.05
532.452	34665.84
532.663	34689.18
532.875	34717.38
533.087	34736.44
533.298	34760.4
533.51	34782.55
533.721	34801.44
533.933	34813.69
534.144	34828.65
534.356	34854.8
534.567	34876.16
534.779	34892.33
534.99	34913.05
535.202	34931.04
535.413	34949.82
535.624	34962.91
535.836	34990
536.047	35008.89
536.259	35030
536.47	35045.42
536.681	35057.36
536.893	35072.4
537.104	35089.75
537.315	35106.64
537.526	35122.05
537.738	35132.04
537.949	35153.65
538.16	35159.69
538.371	35175.47
538.582	35200.2
538.794	35219.93
539.005	35239.56
539.216	35264.25
539.427	35283.62
539.638	35304.73
539.849	35321.67
540.06	35342.64
540.272	35357.58
540.483	35372.27
540.694	35380.45
540.905	35385.84
541.116	35396.44
541.327	35411.38
541.538	35416.87
541.749	35422.95
541.96	35426.69
542.17	35428.95
542.381	35441.95
542.592	35450.49
542.803	35454
543.014	35460.24
543.225	35460.89
543.436	35460.56
543.647	35467.13
543.857	35466.76
544.068	35474.71
544.279	35475.47
544.49	35494.31
544.701	35498.95
544.911	35508.95
545.122	35523.82
545.333	35533.49
545.543	35542.33
545.754	35551.35
545.965	35548.22
546.175	35557.45
546.386	35562.96
546.597	35580.95
546.807	35593.04
547.018	35594.84
547.229	35598.84
547.439	35591.44
547.65	35593.2
547.86	35592.98
548.071	35606.05
548.281	35622.98
548.492	35628.64
548.702	35644.07
548.913	35645.62
549.123	35646.22
549.333	35657.2
549.544	35661.95
549.754	35672.8
549.965	35677.98
550.175	35707.53
550.385	35717.22
550.596	35733.25
550.806	35745.38
551.016	35734.07
551.227	35741.55
551.437	35745.09
551.647	35751.35
551.857	35758.36
552.068	35772.25
552.278	35789.87
552.488	35786.8
552.698	35788.33
552.908	35783.27
553.119	35789.96
553.329	35799.67
553.539	35805.47
553.749	35805.05
553.959	35806.36
554.169	35806.42
554.379	35800.35
554.589	35793.73
554.799	35795.62
555.009	35797.05
555.219	35786.47
555.429	35777.89
555.639	35782.65
555.849	35773.62
556.059	35775.36
556.269	35766.53
556.479	35760.47
556.689	35758.18
556.899	35754.85
557.109	35754.58
557.319	35750.49
557.528	35753.44
557.738	35751.73
557.948	35741.87
558.158	35737.09
558.368	35724.85
558.577	35719.09
558.787	35718.18
558.997	35720.71
559.207	35710.87
559.416	35693.45
559.626	35676.25
559.836	35661.2
560.045	35660.4
560.255	35662.51
560.465	35659.25
560.674	35659.56
560.884	35659.95
561.093	35648.47
561.303	35635.11
561.512	35627.35
561.722	35620.69
561.932	35612.36
562.141	35613.78
562.351	35589.91
562.56	35571.56
562.769	35566.71
562.979	35554.4
563.188	35553.8
563.398	35555.44
563.607	35558.64
563.817	35550.69
564.026	35546.49
564.235	35545.35
564.445	35539.18
564.654	35543.62
564.863	35544.13
565.073	35531.25
565.282	35521.64
565.491	35498.47
565.7	35473.24
565.91	35443.75
566.119	35426.18
566.328	35404.45
566.537	35387.24
566.746	35374.31
566.956	35347.25
567.165	35330.51
567.374	35322.69
567.583	35305.45
567.792	35290.16
568.001	35271.05
568.21	35265.2
568.419	35242.11
568.628	35223.18
568.837	35203.38
569.046	35167.95
569.255	35151.25
569.464	35118.18
569.673	35080.36
569.882	35053.36
570.091	35030.89
570.3	35007.35
570.509	34980.78
570.718	34974.53
570.927	34960.15
571.135	34943.76
571.344	34934.16
571.553	34921.45
571.762	34918.13
571.971	34915.29
572.18	34899.4
572.388	34874.6
572.597	34855.33
572.806	34834.75
573.014	34813.93
573.223	34791.15
573.432	34765.84
573.641	34752.05
573.849	34728.53
574.058	34696.51
574.266	34673.16
574.475	34662.65
574.684	34654.71
574.892	34640.02
575.101	34619.2
575.309	34597.8
575.518	34579.98
575.726	34570.27
575.935	34552.4
576.143	34528.67
576.352	34510.75
576.56	34487.22
576.769	34461.04
576.977	34433.47
577.186	34419.27
577.394	34405.15
577.602	34376.36
577.811	34347.78
578.019	34322.07
578.228	34285.4
578.436	34264.45
578.644	34239.84
578.852	34207.04
579.061	34182.53
579.269	34159.2
579.477	34137.4
579.685	34106.22
579.894	34093.75
580.102	34079.31
580.31	34054.53
580.518	34042.98
580.726	34018.87
580.935	34002.56
581.143	33986.18
581.351	33968.78
581.559	33946.11
581.767	33920.71
581.975	33899.78
582.183	33875.96
582.391	33846.49
582.599	33818.95
582.807	33788.47
583.015	33770.84
583.223	33740.29
583.431	33707.65
583.639	33679.11
583.847	33658.8
584.055	33638.16
584.263	33612.49
584.471	33578.15
584.678	33556.56
584.886	33542.69
585.094	33514.78
585.302	33486.76
585.51	33468.45
585.718	33454.53
585.925	33423.09
586.133	33399.25
586.341	33371.65
586.549	33346.05
586.756	33329.56
586.964	33310.53
587.172	33283.31
587.379	33263.65
587.587	33238.07
587.795	33205.82
588.002	33180.33
588.21	33157.82
588.417	33125
588.625	33091.67
588.833	33065.15
589.04	33039.76
589.248	33003.51
589.455	32978.24
589.663	32945.89
589.87	32917.53
590.078	32897.58
590.285	32870.84
590.492	32848.71
590.7	32832.64
590.907	32815
591.115	32781.58
591.322	32750.8
591.529	32722.6
591.737	32684.02
591.944	32659.8
592.151	32622.91
592.359	32585.02
592.566	32543.65
592.773	32503.96
592.981	32461.98
593.188	32424.8
593.395	32403.42
593.602	32370.93
593.809	32348.65
594.017	32327.05
594.224	32297.13
594.431	32273.65
594.638	32244.24
594.845	32213.45
595.052	32187.11
595.259	32162.87
595.466	32139.18
595.673	32112.55
595.88	32089.76
596.088	32068.29
596.295	32042.82
596.502	32009.62
596.709	31983.73
596.915	31960.25
597.122	31938.33
597.329	31914.55
597.536	31879.05
597.743	31849.25
597.95	31810.42
598.157	31776.64
598.364	31724.42
598.571	31671.89
598.777	31630.07
598.984	31571.55
599.191	31516.29
599.398	31464.58
599.605	31410.16
599.811	31350.67
600.018	31281.22
600.225	31237.27
600.431	31180.73
600.638	31139.35
600.845	31105.58
601.052	31064.67
601.258	31029.91
601.465	30982.69
601.671	30934.87
601.878	30867.51
602.085	30795.8
602.291	30707.6
602.498	30576.78
602.704	30441.56
602.911	30274.51
603.117	30088.15
603.324	29893.25
603.53	29677.13
603.737	29448.71
603.943	29208.29
604.15	28962.75
604.356	28710.27
604.562	28453.16
604.769	28200.73
604.975	27940.35
605.181	27687.27
605.388	27429.89
605.594	27167.13
605.8	26906.62
606.007	26651.02
606.213	26387.8
606.419	26125.09
606.625	25861.47
606.832	25601.44
607.038	25336.67
607.244	25064.4
607.45	24793.89
607.656	24525.24
607.863	24258.31
608.069	23991.62
608.275	23721.25
608.481	23453.58
608.687	23175.49
608.893	22907.82
609.099	22639.6
609.305	22374.18
609.511	22109.05
609.717	21834.33
609.923	21554.35
610.129	21268.96
610.335	20982.65
610.541	20687.49
610.747	20395.95
610.953	20106.73
611.159	19804.71
611.365	19500.42
611.571	19191.45
611.776	18884.2
611.982	18577.22
612.188	18278.65
612.394	17974.02
612.6	17660.64
612.806	17356.15
613.011	17044.8
613.217	16734.45
613.423	16423.29
613.628	16119.84
613.834	15819.91
614.04	15519.85
614.246	15227.47
614.451	14929.73
614.657	14646.29
614.862	14379.2
615.068	14112.89
615.274	13849.78
615.479	13597.18
615.685	13353.38
615.89	13108.42
616.096	12868.93
616.301	12623.13
616.507	12374.16
616.712	12129.8
616.918	11884.44
617.123	11631.95
617.329	11371.47
617.534	11111.35
617.74	10845.84
617.945	10580.8
618.15	10298.45
618.356	9856.29
618.561	9069.02
618.766	8118.49
618.972	7129.62
619.177	6162.62
619.382	5222.85
619.588	4313.47
619.793	3769.76
619.998	3135.47
620.203	2371.32
620.408	1445.71
620.614	544.33
