Data from test1_MAYP1115451__38__10-17-21-899.txt Node

Date: Wed Jun 12 10:17:21 MDT 2024
User: Modes Lab
Spectrometer: MAYP111545
Trigger mode: 0
Integration Time (sec): 8.000000E-3
Scans to average: 5
Electric dark correction enabled: true
Nonlinearity correction enabled: false
Boxcar width: 5
XAxis mode: Wavelengths
Number of Pixels in Spectrum: 2068
>>>>>Begin Spectral Data<<<<<
165.214	163.23
165.449	162.82
165.683	172.07
165.918	179.88
166.152	186.47
166.387	191.75
166.621	123.73
166.856	162.24
167.09	181.49
167.325	205
167.559	221.17
167.794	236.17
168.028	244.15
168.263	244.46
168.497	245.22
168.732	246.04
168.966	247.08
169.2	248.38
169.435	250.68
169.669	250.97
169.903	253.18
170.138	254.51
170.372	255.75
170.606	257.44
170.841	260.02
171.075	261.28
171.309	262.37
171.544	264.33
171.778	265.77
172.012	267.88
172.246	269.77
172.48	271.84
172.715	274.37
172.949	275.31
173.183	276.84
173.417	277.58
173.651	278.88
173.885	280.44
174.119	281.09
174.354	282.17
174.588	281.44
174.822	282
175.056	281.91
175.29	281.77
175.524	281.44
175.758	282.26
175.992	283.44
176.226	283.86
176.46	284.31
176.694	285.06
176.928	285.48
177.162	286.77
177.396	287.18
177.63	288.68
177.864	288.82
178.097	290.62
178.331	291.13
178.565	291.48
178.799	292.62
179.033	293.4
179.267	293.75
179.5	294.55
179.734	294.66
179.968	296.91
180.202	297.02
180.436	297.88
180.669	297.71
180.903	297.82
181.137	299.02
181.371	300.71
181.604	301.29
181.838	302.11
182.072	303.18
182.305	304.97
182.539	305.26
182.772	306.84
183.006	308.75
183.24	310.75
183.473	314.28
183.707	316.08
183.94	316.02
184.174	317.28
184.408	318.58
184.641	319.71
184.875	320.08
185.108	321.04
185.342	322.37
185.575	323.55
185.808	324.64
186.042	323.75
186.275	324.55
186.509	326.31
186.742	327.86
186.976	329.42
187.209	330.02
187.442	331.73
187.676	333.57
187.909	333.68
188.142	334.17
188.376	335.6
188.609	337.8
188.842	338.84
189.076	340.33
189.309	341.17
189.542	342.15
189.775	344.09
190.009	346.53
190.242	348.31
190.475	350.91
190.708	353.2
190.941	354.69
191.174	356.24
191.408	358.22
191.641	359.4
191.874	361.64
192.107	363.69
192.34	366.04
192.573	366.84
192.806	368.64
193.039	369.77
193.272	371.73
193.505	373.8
193.738	375.98
193.971	377.71
194.204	380.77
194.437	382.53
194.67	384.89
194.903	386.51
195.136	388.17
195.369	389.57
195.602	390.73
195.835	393.15
196.068	395.38
196.301	396.95
196.533	398.49
196.766	399.37
196.999	402.06
197.232	403.49
197.465	404.95
197.698	406.93
197.93	409.62
198.163	412.04
198.396	413.31
198.629	414.71
198.861	416.69
199.094	419
199.327	422.09
199.559	423.8
199.792	425.93
200.025	429.17
200.257	431.18
200.49	433.4
200.723	435.48
200.955	438.46
201.188	440.48
201.42	442.04
201.653	444.31
201.886	446.28
202.118	448.68
202.351	450.69
202.583	453.02
202.816	456.78
203.048	458.88
203.281	461.77
203.513	463.18
203.745	466.98
203.978	469.82
204.21	472.82
204.443	475.02
204.675	477.33
204.907	479.75
205.14	481.48
205.372	481.98
205.605	483.4
205.837	485.89
206.069	488.06
206.302	489
206.534	489.97
206.766	491.15
206.998	491.97
207.231	493.11
207.463	495.2
207.695	498.08
207.927	500.71
208.159	503.09
208.392	504.4
208.624	507.49
208.856	509.11
209.088	511.98
209.32	514.46
209.552	516.02
209.784	518.8
210.017	521.09
210.249	522.44
210.481	525.11
210.713	528.38
210.945	531.15
211.177	531.24
211.409	532.35
211.641	534.86
211.873	535.46
212.105	538.6
212.337	540.8
212.569	541.53
212.801	544.06
213.033	545.22
213.264	545.13
213.496	546.64
213.728	548.55
213.96	551.82
214.192	552.86
214.424	555.98
214.656	558.26
214.887	558.75
215.119	561.38
215.351	561.77
215.583	563.62
215.815	566.24
216.046	567.53
216.278	569.46
216.51	572.13
216.741	573.31
216.973	573.82
217.205	574.37
217.436	577.29
217.668	579.15
217.9	580.89
218.131	581.8
218.363	583.4
218.595	584.84
218.826	587.35
219.058	587.04
219.289	588.91
219.521	591.06
219.752	592.98
219.984	593.4
220.215	594.22
220.447	595.8
220.678	597.62
220.91	597.37
221.141	598.84
221.373	599.55
221.604	600.91
221.836	602.02
222.067	601.73
222.298	602.51
222.53	603.04
222.761	603.62
222.993	604.37
223.224	606.13
223.455	608.17
223.686	608.68
223.918	609.69
224.149	610.58
224.38	611.55
224.612	613.13
224.843	613.55
225.074	616.4
225.305	619.33
225.536	619.49
225.768	619.86
225.999	619.97
226.23	620.09
226.461	620.04
226.692	621.49
226.923	622.02
227.155	624.58
227.386	626.15
227.617	624.75
227.848	623.97
228.079	626.8
228.31	626.75
228.541	627
228.772	628.26
229.003	628.66
229.234	627.46
229.465	627.71
229.696	627.08
229.927	626.8
230.158	628.15
230.389	627.33
230.62	626.06
230.85	624.73
231.081	625.26
231.312	624.33
231.543	624.22
231.774	624.93
232.005	624.89
232.236	623.62
232.466	623.04
232.697	621.33
232.928	622.29
233.159	621.6
233.389	623.35
233.62	622.86
233.851	623.4
234.082	622.89
234.312	622.13
234.543	622.29
234.774	622.86
235.004	623.13
235.235	624.28
235.466	622.75
235.696	622.82
235.927	620.88
236.157	620.33
236.388	620.91
236.618	622.09
236.849	622.93
237.08	623.8
237.31	623.58
237.541	623.88
237.771	622.13
238.002	623.66
238.232	621.35
238.463	623.22
238.693	624.17
238.923	622.48
239.154	620.62
239.384	620.26
239.615	618.24
239.845	618.2
240.075	618.69
240.306	619.58
240.536	617.91
240.766	619.35
240.997	617.33
241.227	616.04
241.457	615.24
241.687	617.42
241.918	617.17
242.148	617.55
242.378	617
242.608	613.88
242.839	612.95
243.069	612.68
243.299	611.97
243.529	613.86
243.759	613.98
243.989	614.46
244.22	612.82
244.45	610.77
244.68	609.22
244.91	608.37
245.14	608.48
245.37	608.95
245.6	608.77
245.83	608.6
246.06	606.64
246.29	606.88
246.52	606.58
246.75	604.44
246.98	604.8
247.21	604.84
247.44	604.15
247.67	603.66
247.9	602.93
248.13	602.55
248.359	601.48
248.589	599.75
248.819	598.22
249.049	597.22
249.279	597.98
249.509	597.02
249.738	596.58
249.968	595.84
250.198	595.91
250.428	594.88
250.657	592.71
250.887	592.02
251.117	593.44
251.347	592.68
251.576	592.42
251.806	591.08
252.036	592
252.265	590.77
252.495	590.89
252.725	590.46
252.954	589.4
253.184	589.22
253.413	589.55
253.643	587.28
253.873	587.17
254.102	586.97
254.332	586.84
254.561	584.62
254.791	583.86
255.02	583.73
255.25	583.04
255.479	583.73
255.708	584.06
255.938	582.89
256.167	582.08
256.397	580.58
256.626	578.48
256.856	578.28
257.085	578.4
257.314	578.78
257.544	577.17
257.773	576.26
258.002	574.98
258.232	573.68
258.461	572.98
258.69	572.98
258.919	573.51
259.149	574.24
259.378	573.08
259.607	572.09
259.836	570.53
260.065	569.75
260.295	569.09
260.524	568.33
260.753	567.86
260.982	568.22
261.211	567.78
261.44	566.75
261.669	566.38
261.899	566.57
262.128	565.44
262.357	564.75
262.586	564.11
262.815	564.22
263.044	563.04
263.273	565.31
263.502	563.91
263.731	563.33
263.96	561.77
264.189	560.57
264.418	558.42
264.646	557.89
264.875	557
265.104	555.97
265.333	554.73
265.562	554.88
265.791	551.38
266.02	550.55
266.249	550.04
266.477	548.88
266.706	547.48
266.935	546.77
267.164	546.57
267.393	546.17
267.621	545.53
267.85	544.88
268.079	544.33
268.307	541.91
268.536	541
268.765	539.28
268.993	539.71
269.222	540.24
269.451	540.04
269.679	539.11
269.908	538.62
270.137	538.62
270.365	538
270.594	538.24
270.822	539.51
271.051	539.98
271.279	540.38
271.508	540.4
271.736	540.51
271.965	541.91
272.193	542.15
272.422	542.42
272.65	541.71
272.879	542.24
273.107	541.53
273.336	541.48
273.564	540.15
273.792	539.82
274.021	538.2
274.249	535.26
274.477	532.71
274.706	531.24
274.934	531.11
275.162	531.09
275.391	530.37
275.619	528.51
275.847	527.62
276.075	526.68
276.304	525.11
276.532	523.88
276.76	525.37
276.988	525.22
277.216	525.46
277.445	524.31
277.673	523.26
277.901	522.55
278.129	522
278.357	520.58
278.585	520.84
278.813	520.62
279.041	522.09
279.269	520.37
279.497	521.37
279.725	520.55
279.954	519.11
280.182	518.11
280.41	516.18
280.637	514.98
280.865	516
281.093	515.06
281.321	515.68
281.549	514.95
281.777	513.89
282.005	511.08
282.233	511.68
282.461	512.8
282.689	512.46
282.916	512.37
283.144	512.73
283.372	511.68
283.6	511.98
283.828	509.78
284.055	507.89
284.283	507.64
284.511	506.97
284.739	505.44
284.966	503.91
285.194	503.38
285.422	503.18
285.649	502.13
285.877	500.71
286.105	498.89
286.332	499.68
286.56	499.48
286.788	499.2
287.015	500.66
287.243	500.28
287.47	497.93
287.698	497.62
287.925	496.97
288.153	496.66
288.381	497.11
288.608	497.18
288.836	495.86
289.063	494.88
289.29	494.78
289.518	493.37
289.745	491.84
289.973	493
290.2	492.33
290.428	492.09
290.655	491
290.882	489.31
291.11	488.26
291.337	488.02
291.564	488
291.792	486.98
292.019	485.4
292.246	486.97
292.473	486.15
292.701	485.73
292.928	484.46
293.155	485.15
293.382	485.35
293.61	484.62
293.837	483.57
294.064	483.88
294.291	482.84
294.518	482.98
294.745	480.93
294.972	479.73
295.2	478.95
295.427	479.78
295.654	478.38
295.881	477.37
296.108	476.51
296.335	475.89
296.562	474.66
296.789	474.42
297.016	474.38
297.243	473.93
297.47	474.11
297.697	473.91
297.924	473.38
298.151	472.86
298.378	474
298.604	474.35
298.831	473.46
299.058	473.4
299.285	473.2
299.512	472.37
299.739	471.89
299.966	472.04
300.192	471.31
300.419	469.58
300.646	469.97
300.873	467.37
301.099	467.84
301.326	467.86
301.553	466.4
301.78	468.31
302.006	468.22
302.233	467.37
302.46	466.31
302.686	466.02
302.913	466.37
303.14	465.66
303.366	465.62
303.593	464.13
303.819	463.77
304.046	463.09
304.272	459.89
304.499	458.95
304.725	458.82
304.952	458.58
305.179	458.28
305.405	457.68
305.631	456.57
305.858	456.24
306.084	455.57
306.311	454.77
306.537	455.71
306.764	456.09
306.99	456.89
307.216	456.35
307.443	455.73
307.669	454.18
307.895	454.08
308.122	455.42
308.348	455.17
308.574	454.95
308.801	456.26
309.027	455.2
309.253	454.33
309.479	453.68
309.706	455.69
309.932	455.55
310.158	457.11
310.384	456.35
310.61	454.49
310.837	454.95
311.063	454.68
311.289	453.44
311.515	454.84
311.741	454.18
311.967	453.18
312.193	451.64
312.419	451.6
312.645	451.44
312.871	451.24
313.097	451.68
313.323	451.48
313.549	452.24
313.775	452.8
314.001	452.26
314.227	452.53
314.453	453
314.679	453.48
314.905	453.84
315.131	453.13
315.357	453.75
315.583	454.17
315.809	455.53
316.034	455.93
316.26	456.64
316.486	456.91
316.712	457.91
316.938	458.28
317.163	457.73
317.389	458.35
317.615	459.08
317.841	459.93
318.066	460.22
318.292	460.51
318.518	460.71
318.743	461.88
318.969	462.35
319.195	464.04
319.42	463.82
319.646	464.6
319.872	465.4
320.097	466.29
320.323	466.8
320.548	468.58
320.774	469.09
320.999	470.31
321.225	470.78
321.45	471.55
321.676	472.38
321.901	475.17
322.127	476.66
322.352	478.06
322.578	479.66
322.803	480.86
323.029	482.08
323.254	483.55
323.479	485.2
323.705	485.88
323.93	487.13
324.155	488.58
324.381	489.91
324.606	492.37
324.831	495.28
325.057	497.31
325.282	500
325.507	501.29
325.732	504.58
325.958	506.89
326.183	510.24
326.408	512.77
326.633	516.33
326.858	519.53
327.084	520.68
327.309	522.04
327.534	524.78
327.759	526.71
327.984	530.84
328.209	533.48
328.434	536.64
328.659	538.42
328.884	541.62
329.109	544.18
329.334	545.86
329.559	550.04
329.784	552.58
330.009	555.57
330.234	558.86
330.459	562.84
330.684	565.64
330.909	569.35
331.134	573.84
331.359	578.57
331.584	582.28
331.809	587.86
332.034	591.82
332.259	598.42
332.483	603.89
332.708	608.48
332.933	612.66
333.158	616.88
333.383	621.62
333.607	626.77
333.832	631.15
334.057	636.29
334.282	639.95
334.506	645.51
334.731	649.93
334.956	654.6
335.18	661.71
335.405	665.09
335.63	672.08
335.854	675.89
336.079	680.42
336.303	686.57
336.528	691.26
336.753	696.42
336.977	702
337.202	706.68
337.426	712.73
337.651	718.95
337.875	725.15
338.1	731.8
338.324	741.11
338.549	749.91
338.773	755.78
338.997	763.49
339.222	771.04
339.446	778
339.671	787
339.895	794.18
340.119	800.28
340.344	810.15
340.568	815.51
340.792	823.15
341.017	829.44
341.241	839.02
341.465	846.44
341.689	855.82
341.914	864.09
342.138	871.04
342.362	878.66
342.586	887.33
342.811	894.44
343.035	904.26
343.259	910.89
343.483	918.71
343.707	925.8
343.931	935.73
344.155	944.58
344.38	954.26
344.604	962.66
344.828	973.11
345.052	981.93
345.276	992
345.5	1000.84
345.724	1009.82
345.948	1021.13
346.172	1030.28
346.396	1039.71
346.62	1051.26
346.844	1061.08
347.068	1071.18
347.292	1080.31
347.515	1091.15
347.739	1102.11
347.963	1110.88
348.187	1122.48
348.411	1131.29
348.635	1141.75
348.859	1152.22
349.082	1161.55
349.306	1172.51
349.53	1185.46
349.754	1196.18
349.977	1205.31
350.201	1215.28
350.425	1227.55
350.649	1237.55
350.872	1249.37
351.096	1262.82
351.32	1275.28
351.543	1286.89
351.767	1297.35
351.99	1307.22
352.214	1317.24
352.438	1330.49
352.661	1339.95
352.885	1352.62
353.108	1365.06
353.332	1376.33
353.555	1387.75
353.779	1398.6
354.002	1409.58
354.226	1421.02
354.449	1431.86
354.673	1444.22
354.896	1456.09
355.12	1468.62
355.343	1481.24
355.566	1493.64
355.79	1506.26
356.013	1516.91
356.237	1527.89
356.46	1540.91
356.683	1553.66
356.907	1567.29
357.13	1581.53
357.353	1591.13
357.576	1603.53
357.8	1613.68
358.023	1626.88
358.246	1638.89
358.469	1653.08
358.693	1666.73
358.916	1680.22
359.139	1692.93
359.362	1704.15
359.585	1716.58
359.808	1730.8
360.031	1744.86
360.255	1757.35
360.478	1768.93
360.701	1783.28
360.924	1793.75
361.147	1806.53
361.37	1817.78
361.593	1831.11
361.816	1844.93
362.039	1856.82
362.262	1870.55
362.485	1883.68
362.708	1900.22
362.931	1912.82
363.154	1926.51
363.377	1941.06
363.599	1953.73
363.822	1966.44
364.045	1982.69
364.268	1996.06
364.491	2009.53
364.714	2026.42
364.936	2039.8
365.159	2053.77
365.382	2068.2
365.605	2082.35
365.828	2099.08
366.05	2115.77
366.273	2132.4
366.496	2142.58
366.718	2160.17
366.941	2179.09
367.164	2191.08
367.386	2208.38
367.609	2223.22
367.832	2241.11
368.054	2255.93
368.277	2270.75
368.5	2283.82
368.722	2299.75
368.945	2318.26
369.167	2333.62
369.39	2346.82
369.612	2364.35
369.835	2380.04
370.057	2395.57
370.28	2412.71
370.502	2432.02
370.725	2446.4
370.947	2465.91
371.169	2480.44
371.392	2498.4
371.614	2514.58
371.837	2532.51
372.059	2548.44
372.281	2564.95
372.504	2581.91
372.726	2597.69
372.948	2612.09
373.171	2631.53
373.393	2649.18
373.615	2667.33
373.837	2683.18
374.06	2700.98
374.282	2720.57
374.504	2740.57
374.726	2761.37
374.948	2779.93
375.17	2798.28
375.393	2816.31
375.615	2837.26
375.837	2854.11
376.059	2876.2
376.281	2895.88
376.503	2915.22
376.725	2933.8
376.947	2952.93
377.169	2971.31
377.391	2992.4
377.613	3012.15
377.835	3036.86
378.057	3052.88
378.279	3075.53
378.501	3094.11
378.723	3114
378.945	3136.86
379.167	3157.8
379.389	3178.75
379.611	3200.89
379.833	3222.18
380.054	3245.22
380.276	3266.91
380.498	3292.29
380.72	3316
380.942	3341.31
381.163	3366.2
381.385	3389.57
381.607	3413.8
381.829	3437.22
382.05	3462.93
382.272	3486.46
382.494	3512.8
382.716	3535.55
382.937	3560.48
383.159	3587.29
383.381	3612.02
383.602	3637.09
383.824	3662.4
384.045	3689.29
384.267	3715.4
384.488	3739.08
384.71	3766.91
384.932	3791.15
385.153	3820.69
385.375	3848.62
385.596	3873.62
385.818	3900.84
386.039	3927.95
386.261	3956.55
386.482	3981.78
386.703	4011.89
386.925	4037.22
387.146	4063.84
387.368	4092.86
387.589	4117.66
387.81	4145.33
388.032	4172.2
388.253	4201.33
388.474	4230.84
388.696	4260.62
388.917	4291.51
389.138	4319.24
389.359	4352.15
389.581	4386.09
389.802	4416.46
390.023	4441.93
390.244	4470.35
390.465	4500.71
390.687	4532.68
390.908	4563.33
391.129	4590.75
391.35	4621.15
391.571	4654.53
391.792	4687.55
392.013	4716.2
392.234	4746.26
392.455	4782.71
392.677	4812.11
392.898	4849.48
393.119	4877.15
393.34	4909.02
393.561	4940.71
393.782	4972.51
394.003	5002.8
394.223	5028.98
394.444	5058.84
394.665	5090.93
394.886	5124.37
395.107	5157.93
395.328	5186.97
395.549	5220.55
395.77	5254.53
395.99	5290.6
396.211	5323.02
396.432	5358.08
396.653	5394.82
396.874	5431.37
397.094	5466.18
397.315	5494.69
397.536	5527.64
397.757	5561.44
397.977	5597.35
398.198	5630.62
398.419	5662.46
398.639	5697.66
398.86	5728.17
399.081	5763.46
399.301	5796.2
399.522	5827.89
399.742	5866.38
399.963	5901.24
400.184	5935.44
400.404	5967.28
400.625	6000.95
400.845	6033.77
401.066	6066.97
401.286	6102.13
401.507	6135.93
401.727	6169.26
401.948	6207.42
402.168	6238.6
402.388	6274.78
402.609	6307.2
402.829	6340.08
403.05	6372.62
403.27	6407.53
403.49	6439.48
403.711	6476.17
403.931	6508.13
404.151	6541.78
404.372	6574.84
404.592	6612.15
404.812	6645.49
405.032	6679.66
405.253	6715.93
405.473	6749.11
405.693	6779.95
405.913	6819.33
406.133	6849.53
406.353	6885.88
406.574	6919.73
406.794	6953.8
407.014	6989.46
407.234	7028.66
407.454	7066.6
407.674	7102.73
407.894	7136.89
408.114	7182.71
408.334	7218.06
408.554	7255.82
408.774	7294.29
408.994	7330.86
409.214	7367.37
409.434	7403.95
409.654	7437.15
409.874	7468.69
410.094	7501.8
410.314	7543.71
410.534	7572.93
410.754	7607.58
410.974	7641.82
411.193	7679.11
411.413	7719.22
411.633	7757.75
411.853	7791.95
412.073	7828.6
412.292	7873.88
412.512	7917.98
412.732	7956.75
412.952	7999.73
413.171	8040.06
413.391	8082.86
413.611	8120.64
413.831	8161.91
414.05	8200.44
414.27	8246.58
414.489	8291.38
414.709	8329.33
414.929	8373
415.148	8414.95
415.368	8454.58
415.587	8498.09
415.807	8541.73
416.026	8587
416.246	8631.98
416.465	8674.91
416.685	8715.33
416.904	8759.53
417.124	8802.17
417.343	8842.44
417.563	8892.17
417.782	8942
418.002	8987.64
418.221	9035.06
418.44	9076.26
418.66	9119.04
418.879	9167.97
419.098	9215.97
419.318	9258.29
419.537	9302.57
419.756	9349.46
419.976	9384.93
420.195	9422.82
420.414	9468.06
420.633	9508.78
420.853	9554.53
421.072	9595.08
421.291	9633.93
421.51	9678
421.729	9722.82
421.948	9767.62
422.168	9810.13
422.387	9856.26
422.606	9901.64
422.825	9944.04
423.044	9991.35
423.263	10043.09
423.482	10088.17
423.701	10133.64
423.92	10172.42
424.139	10218.22
424.358	10265.13
424.577	10308.55
424.796	10357.69
425.015	10406.69
425.234	10451.97
425.453	10495.95
425.672	10534.06
425.891	10585.71
426.11	10633.09
426.328	10684.06
426.547	10734.91
426.766	10780.75
426.985	10831.24
427.204	10879.77
427.422	10923.8
427.641	10971.22
427.86	11016.69
428.079	11069.98
428.297	11114.02
428.516	11164.78
428.735	11211.55
428.954	11250.53
429.172	11300.91
429.391	11344.13
429.61	11388.88
429.828	11439.08
430.047	11491.15
430.265	11539.69
430.484	11582.55
430.703	11625.4
430.921	11672.49
431.14	11718.97
431.358	11768.62
431.577	11809.77
431.795	11858.06
432.014	11903.08
432.232	11952.04
432.451	11997.93
432.669	12049.22
432.887	12099.57
433.106	12154.28
433.324	12197.86
433.543	12246.98
433.761	12292.88
433.979	12344.31
434.198	12391.22
434.416	12443.82
434.634	12486.29
434.853	12532.98
435.071	12575.8
435.289	12621.22
435.507	12660.24
435.726	12704.84
435.944	12751.82
436.162	12800.51
436.38	12850.58
436.598	12895.46
436.817	12942.62
437.035	12987.24
437.253	13032.68
437.471	13076.69
437.689	13124.53
437.907	13175.51
438.125	13225.31
438.343	13271.53
438.561	13322.2
438.78	13364.84
438.998	13416.6
439.216	13461.31
439.434	13514.66
439.652	13559
439.869	13611.02
440.087	13654.69
440.305	13701.46
440.523	13752.4
440.741	13801
440.959	13847.73
441.177	13894.33
441.395	13941.51
441.613	13988.13
441.831	14030.89
442.048	14076.84
442.266	14125.4
442.484	14176.62
442.702	14222.95
442.919	14269.62
443.137	14320.46
443.355	14369.71
443.573	14423.29
443.79	14473.13
444.008	14526.53
444.226	14574.15
444.443	14627.42
444.661	14670.89
444.879	14717.68
445.096	14774.71
445.314	14827.68
445.532	14871.37
445.749	14922.49
445.967	14974.68
446.184	15015.2
446.402	15056.53
446.619	15105.24
446.837	15148.49
447.054	15197.46
447.272	15242.22
447.489	15282.08
447.707	15322.2
447.924	15379.44
448.141	15423.78
448.359	15468.73
448.576	15525.06
448.794	15581.4
449.011	15633.13
449.228	15677.38
449.446	15728.11
449.663	15769.62
449.88	15816.24
450.098	15862.66
450.315	15904.09
450.532	15950.95
450.749	15993.86
450.967	16038.11
451.184	16077.09
451.401	16119.2
451.618	16175.09
451.835	16222.78
452.052	16276.38
452.27	16326.89
452.487	16379.11
452.704	16425.15
452.921	16475.78
453.138	16526.08
453.355	16576.46
453.572	16627.28
453.789	16689.93
454.006	16729.73
454.223	16779.08
454.44	16825.2
454.657	16874.08
454.874	16915.08
455.091	16962.91
455.308	16999.28
455.525	17042.89
455.742	17081.18
455.959	17127.89
456.176	17165.64
456.393	17220.09
456.609	17270.06
456.826	17319.58
457.043	17365.68
457.26	17418.77
457.477	17464.35
457.693	17515.62
457.91	17565.77
458.127	17616.49
458.344	17658.13
458.56	17700.82
458.777	17736.28
458.994	17773.29
459.21	17814.48
459.427	17846.68
459.644	17879.02
459.86	17913.64
460.077	17955.22
460.294	17986.38
460.51	18023.06
460.727	18058.64
460.943	18092.22
461.16	18132.29
461.376	18168.29
461.593	18209.68
461.809	18253.17
462.026	18296.17
462.242	18334.78
462.459	18367.04
462.675	18407.53
462.892	18445.15
463.108	18493
463.324	18537.4
463.541	18585.66
463.757	18624.75
463.974	18664.08
464.19	18701.78
464.406	18748.77
464.623	18803.78
464.839	18853.88
465.055	18901.62
465.271	18955.38
465.488	19000.17
465.704	19044.51
465.92	19090.18
466.136	19138.71
466.353	19188.88
466.569	19244.44
466.785	19294.91
467.001	19344.49
467.217	19396.71
467.433	19447.44
467.649	19500.26
467.865	19554.69
468.082	19613.58
468.298	19672.93
468.514	19737.04
468.73	19793.02
468.946	19861.35
469.162	19922.73
469.378	19988
469.594	20051.29
469.81	20115.29
470.026	20180.28
470.242	20247.73
470.457	20318.29
470.673	20384.58
470.889	20445.33
471.105	20519.06
471.321	20583.91
471.537	20650.98
471.753	20712.31
471.968	20784.35
472.184	20849.73
472.4	20915.82
472.616	20986.91
472.832	21061.02
473.047	21132.82
473.263	21216
473.479	21279.8
473.694	21349.78
473.91	21428.37
474.126	21499.31
474.341	21574.42
474.557	21658.98
474.773	21726.62
474.988	21786.62
475.204	21856.18
475.42	21924.55
475.635	21989.29
475.851	22062.58
476.066	22134.58
476.282	22197.95
476.497	22264.84
476.713	22324.04
476.928	22388.95
477.144	22468.62
477.359	22540.26
477.575	22605.44
477.79	22675.29
478.005	22743.26
478.221	22805.8
478.436	22865.35
478.651	22921.75
478.867	22985.68
479.082	23049.97
479.297	23106.06
479.513	23154.57
479.728	23209.11
479.943	23254.82
480.159	23299.15
480.374	23344.17
480.589	23404.2
480.804	23455.98
481.019	23508.95
481.235	23555.49
481.45	23604.38
481.665	23654.84
481.88	23709.11
482.095	23761.71
482.31	23816.28
482.525	23870.4
482.741	23929.24
482.956	23969.69
483.171	24018.44
483.386	24079.06
483.601	24130.98
483.816	24176.24
484.031	24214.91
484.246	24257.38
484.461	24302.22
484.676	24349.35
484.891	24397.08
485.105	24429.77
485.32	24473.48
485.535	24514.95
485.75	24552.58
485.965	24595.69
486.18	24636.2
486.395	24690.97
486.609	24741.86
486.824	24781.69
487.039	24822.8
487.254	24858.33
487.469	24899.35
487.683	24942.35
487.898	24984.13
488.113	25019.26
488.327	25056.18
488.542	25102.13
488.757	25128.93
488.972	25161.13
489.186	25198.78
489.401	25228.28
489.615	25260.2
489.83	25299.88
490.045	25335.18
490.259	25369.35
490.474	25400.35
490.688	25433.73
490.903	25461.18
491.117	25496.69
491.332	25524.38
491.546	25555.8
491.761	25585.62
491.975	25625.2
492.19	25654.2
492.404	25689.22
492.618	25715.28
492.833	25748.95
493.047	25767.18
493.262	25795.37
493.476	25830.35
493.69	25856.09
493.905	25892.08
494.119	25923.77
494.333	25948.24
494.547	25970.82
494.762	25995.28
494.976	26023.02
495.19	26047
495.404	26084.37
495.619	26112.55
495.833	26137.35
496.047	26161.2
496.261	26171.06
496.475	26186.58
496.689	26196.57
496.903	26213.58
497.117	26214.31
497.332	26212.58
497.546	26211.4
497.76	26202.66
497.974	26192.98
498.188	26181.11
498.402	26170.38
498.616	26166.33
498.83	26164.64
499.044	26155.6
499.258	26147.18
499.472	26146.86
499.685	26146.18
499.899	26154.78
500.113	26164.77
500.327	26173.66
500.541	26178.33
500.755	26194.86
500.969	26205.89
501.183	26220.8
501.396	26244.42
501.61	26269.91
501.824	26294.91
502.038	26320.88
502.251	26339.58
502.465	26354.6
502.679	26379.98
502.892	26397.26
503.106	26416.08
503.32	26434.73
503.533	26450.8
503.747	26475.77
503.961	26502.26
504.174	26515.4
504.388	26550.75
504.602	26577.44
504.815	26612.62
505.029	26653.2
505.242	26691.91
505.456	26735.48
505.669	26778.18
505.883	26837.38
506.096	26883.88
506.31	26931.29
506.523	26989.98
506.736	27038.66
506.95	27093.53
507.163	27148.57
507.377	27205.77
507.59	27269.68
507.803	27327.48
508.017	27394.29
508.23	27452.95
508.443	27515
508.657	27573.22
508.87	27635.08
509.083	27695.26
509.296	27758.24
509.51	27831.89
509.723	27901.93
509.936	27982.13
510.149	28063.33
510.363	28145.4
510.576	28224.6
510.789	28310.91
511.002	28408.89
511.215	28507.86
511.428	28614.09
511.641	28728.6
511.854	28822.17
512.067	28916.42
512.28	29026.06
512.493	29129.17
512.707	29232.95
512.92	29336.53
513.132	29443.51
513.345	29540.93
513.558	29646.06
513.771	29743.58
513.984	29840.6
514.197	29951.89
514.41	30051.69
514.623	30151.98
514.836	30251.44
515.049	30355.71
515.262	30463.02
515.474	30560.58
515.687	30664.71
515.9	30766.68
516.113	30861.42
516.325	30966.58
516.538	31059.42
516.751	31160.33
516.964	31241.78
517.176	31337.98
517.389	31425.62
517.602	31504.04
517.814	31596.55
518.027	31676.64
518.24	31749.13
518.452	31834.91
518.665	31898.4
518.877	31975.08
519.09	32042.73
519.303	32119.49
519.515	32191.53
519.728	32261.91
519.94	32335.73
520.153	32395.82
520.365	32460.93
520.578	32536.48
520.79	32599.49
521.002	32664.91
521.215	32723.95
521.427	32789.78
521.64	32842.13
521.852	32891.24
522.064	32945.24
522.277	32988.35
522.489	33045.17
522.701	33100.24
522.914	33143.93
523.126	33192.11
523.338	33242.53
523.551	33296.37
523.763	33341.95
523.975	33391.68
524.187	33440.93
524.399	33483.28
524.612	33533.6
524.824	33571.06
525.036	33602.08
525.248	33649.97
525.46	33696.53
525.672	33745.04
525.884	33783.33
526.096	33822.57
526.308	33859.02
526.521	33894.31
526.733	33924.58
526.945	33956.04
527.157	33988.64
527.369	34029.55
527.581	34060.71
527.793	34090.55
528.004	34106.18
528.216	34138.26
528.428	34167.35
528.64	34201.55
528.852	34234.64
529.064	34268.46
529.276	34294.37
529.488	34317.11
529.699	34347.53
529.911	34366.11
530.123	34382.51
530.335	34410.8
530.547	34428.22
530.758	34456.15
530.97	34470.71
531.182	34492.93
531.393	34520.62
531.605	34565.08
531.817	34596.84
532.029	34622.89
532.24	34652.02
532.452	34677.46
532.663	34700.95
532.875	34730.97
533.087	34743.49
533.298	34767.37
533.51	34788.49
533.721	34807.64
533.933	34814.98
534.144	34843.04
534.356	34860.64
534.567	34881.13
534.779	34903.49
534.99	34922.09
535.202	34940.26
535.413	34971.68
535.624	34998.71
535.836	35016.17
536.047	35030.82
536.259	35045.33
536.47	35054.15
536.681	35059.06
536.893	35060.37
537.104	35070.98
537.315	35085.18
537.526	35101.15
537.738	35105.28
537.949	35123.57
538.16	35144.93
538.371	35171.22
538.582	35192.55
538.794	35208.62
539.005	35241.49
539.216	35263.26
539.427	35288.2
539.638	35305.22
539.849	35309.93
540.06	35331.4
540.272	35340.89
540.483	35340.4
540.694	35341.8
540.905	35345.15
541.116	35355.08
541.327	35356.11
541.538	35372.75
541.749	35376.93
541.96	35382.17
542.17	35393.68
542.381	35397.48
542.592	35400
542.803	35413.64
543.014	35423.64
543.225	35438.09
543.436	35447.98
543.647	35453.71
543.857	35458.09
544.068	35470.17
544.279	35481.04
544.49	35496.58
544.701	35503.09
544.911	35508.57
545.122	35517.68
545.333	35521.46
545.543	35526.38
545.754	35523.66
545.965	35530.75
546.175	35543.28
546.386	35539.62
546.597	35550.62
546.807	35556.98
547.018	35565.02
547.229	35578.13
547.439	35584.24
547.65	35593.04
547.86	35594.8
548.071	35612.06
548.281	35620.31
548.492	35616.97
548.702	35632.38
548.913	35637.89
549.123	35642.6
549.333	35657.89
549.544	35662.78
549.754	35670.4
549.965	35677.48
550.175	35686.97
550.385	35703.86
550.596	35719.24
550.806	35737.84
551.016	35740.06
551.227	35748.98
551.437	35751.64
551.647	35756.17
551.857	35764.09
552.068	35779.78
552.278	35795.08
552.488	35805.78
552.698	35813.44
552.908	35816.22
553.119	35812.17
553.329	35814.89
553.539	35813.95
553.749	35805.68
553.959	35794.6
554.169	35791.84
554.379	35771.78
554.589	35772.38
554.799	35765.38
555.009	35747.95
555.219	35746.75
555.429	35746.51
555.639	35747.49
555.849	35745.8
556.059	35755.58
556.269	35762.69
556.479	35763.58
556.689	35776.06
556.899	35774.68
557.109	35782.91
557.319	35790.26
557.528	35789.68
557.738	35789.93
557.948	35786
558.158	35774.75
558.368	35769.37
558.577	35763.64
558.787	35751.97
558.997	35740.57
559.207	35715.53
559.416	35696.15
559.626	35677.29
559.836	35656.62
560.045	35644.95
560.255	35646.84
560.465	35647.78
560.674	35639.38
560.884	35631.2
561.093	35629.6
561.303	35613.73
561.512	35615.33
561.722	35601.95
561.932	35595.53
562.141	35595.26
562.351	35585.89
562.56	35572.35
562.769	35569.22
562.979	35557.58
563.188	35547.71
563.398	35547.82
563.607	35547.73
563.817	35543.98
564.026	35555.29
564.235	35546.37
564.445	35535.73
564.654	35532.28
564.863	35526.29
565.073	35509
565.282	35510.84
565.491	35494.95
565.7	35464.71
565.91	35452.37
566.119	35433.62
566.328	35402.64
566.537	35390.33
566.746	35368.22
566.956	35352.48
567.165	35341.04
567.374	35327.06
567.583	35319.4
567.792	35311.88
568.001	35303.24
568.21	35276.15
568.419	35256.75
568.628	35234.35
568.837	35211.82
569.046	35191.53
569.255	35164.22
569.464	35126.06
569.673	35086.06
569.882	35047.4
570.091	35018.66
570.3	34993.11
570.509	34981.82
570.718	34958.33
570.927	34951.73
571.135	34939.64
571.344	34919.18
571.553	34905.6
571.762	34897.97
571.971	34897.37
572.18	34878.46
572.388	34859.04
572.597	34832.31
572.806	34805.8
573.014	34784.2
573.223	34761.71
573.432	34735.53
573.641	34715.71
573.849	34685.93
574.058	34663.6
574.266	34635.33
574.475	34617.57
574.684	34594.4
574.892	34590.55
575.101	34572.13
575.309	34562.97
575.518	34547.48
575.726	34524.69
575.935	34511.38
576.143	34496
576.352	34475.08
576.56	34471.46
576.769	34447.93
576.977	34440.18
577.186	34412.55
577.394	34396.02
577.602	34364.37
577.811	34342.38
578.019	34332.26
578.228	34311.53
578.436	34297.44
578.644	34270.86
578.852	34230.8
579.061	34207.35
579.269	34173.29
579.477	34151.84
579.685	34129.53
579.894	34105.93
580.102	34073.02
580.31	34044.95
580.518	34024.75
580.726	34000.18
580.935	33980.68
581.143	33962.62
581.351	33947.06
581.559	33930.2
581.767	33904.46
581.975	33887.48
582.183	33869.62
582.391	33845.84
582.599	33821.02
582.807	33790.53
583.015	33756.68
583.223	33730.37
583.431	33714.88
583.639	33688.82
583.847	33663.8
584.055	33641.11
584.263	33609.51
584.471	33586.18
584.678	33569.48
584.886	33552.57
585.094	33540.22
585.302	33520.68
585.51	33492.17
585.718	33458.2
585.925	33424.86
586.133	33404.06
586.341	33381
586.549	33361.62
586.756	33343.75
586.964	33318.37
587.172	33281.78
587.379	33243.64
587.587	33221.04
587.795	33203.88
588.002	33177
588.21	33161.4
588.417	33130.22
588.625	33102.55
588.833	33067.26
589.04	33040.64
589.248	33011.64
589.455	32987.09
589.663	32968
589.87	32941.02
590.078	32906.53
590.285	32877.4
590.492	32846.58
590.7	32816.49
590.907	32794.75
591.115	32766.31
591.322	32726.4
591.529	32692.86
591.737	32665.51
591.944	32636
592.151	32606.42
592.359	32582.49
592.566	32549.69
592.773	32516.2
592.981	32485.6
593.188	32450.06
593.395	32415.84
593.602	32388.28
593.809	32368.31
594.017	32331.17
594.224	32302.86
594.431	32273.2
594.638	32232.28
594.845	32198.18
595.052	32175.18
595.259	32150.51
595.466	32121.46
595.673	32102.57
595.88	32085.95
596.088	32051
596.295	32028.91
596.502	31991.6
596.709	31959.82
596.915	31951.08
597.122	31931.13
597.329	31899.64
597.536	31868.91
597.743	31841.6
597.95	31812.15
598.157	31769.62
598.364	31733.26
598.571	31682.62
598.777	31641.17
598.984	31592.93
599.191	31524.71
599.398	31475.26
599.605	31417.24
599.811	31368.53
600.018	31312.57
600.225	31254.82
600.431	31202.44
600.638	31148.82
600.845	31116.82
601.052	31085.09
601.258	31045.37
601.465	31008.22
601.671	30951.09
601.878	30884.77
602.085	30795.78
602.291	30690.75
602.498	30566.49
602.704	30429.28
602.911	30272.82
603.117	30094.68
603.324	29883
603.53	29663.93
603.737	29439.57
603.943	29210.22
604.15	28965.53
604.356	28723.93
604.562	28477.31
604.769	28223.55
604.975	27961.75
605.181	27712.28
605.388	27451.44
605.594	27192.6
605.8	26931.37
606.007	26659.64
606.213	26386.89
606.419	26120.15
606.625	25846.22
606.832	25580.48
607.038	25318.48
607.244	25052.68
607.45	24777.73
607.656	24505.11
607.863	24239.09
608.069	23975.91
608.275	23713.17
608.481	23448.44
608.687	23190.46
608.893	22927.11
609.099	22657.38
609.305	22380.66
609.511	22108.46
609.717	21833.02
609.923	21555.08
610.129	21271.28
610.335	20983.46
610.541	20687.77
610.747	20398.08
610.953	20096.33
611.159	19799.49
611.365	19495.02
611.571	19195.42
611.776	18886.55
611.982	18581.6
612.188	18270.98
612.394	17963.97
612.6	17652.55
612.806	17345.48
613.011	17029.2
613.217	16720.89
613.423	16401.62
613.628	16097.58
613.834	15799.68
614.04	15502.4
614.246	15208.17
614.451	14924.88
614.657	14648.02
614.862	14382.88
615.068	14120.58
615.274	13862.46
615.479	13605.8
615.685	13361.15
615.89	13120.75
616.096	12874.69
616.301	12630.82
616.507	12391.31
616.712	12142.49
616.918	11888.09
617.123	11631.75
617.329	11373.06
617.534	11113.68
617.74	10854.93
617.945	10586.2
618.15	10298.44
618.356	9863.17
618.561	9075.35
618.766	8113.88
618.972	7128.4
619.177	6167.48
619.382	5227.77
619.588	4314.71
619.793	3770.31
619.998	3129.54
620.203	2371.04
620.408	1451.11
620.614	544.4
