Data from test1_MAYP1115451__15__10-17-14-362.txt Node

Date: Wed Jun 12 10:17:14 MDT 2024
User: Modes Lab
Spectrometer: MAYP111545
Trigger mode: 0
Integration Time (sec): 8.000000E-3
Scans to average: 5
Electric dark correction enabled: true
Nonlinearity correction enabled: false
Boxcar width: 5
XAxis mode: Wavelengths
Number of Pixels in Spectrum: 2068
>>>>>Begin Spectral Data<<<<<
165.214	164.47
165.449	163.71
165.683	173.02
165.918	181.98
166.152	188.38
166.387	193.69
166.621	124.91
166.856	163.6
167.09	182.56
167.325	206.24
167.559	222.15
167.794	236.33
168.028	244.87
168.263	245.84
168.497	246.07
168.732	246.55
168.966	247.47
169.2	249.42
169.435	250.18
169.669	251.64
169.903	253.02
170.138	255.87
170.372	257.11
170.606	257.27
170.841	258.65
171.075	259.07
171.309	260.76
171.544	262.82
171.778	265.31
172.012	267.4
172.246	268.15
172.48	269.35
172.715	270.13
172.949	272.45
173.183	275.15
173.417	276.58
173.651	279.6
173.885	281.16
174.119	281.75
174.354	281.67
174.588	282.13
174.822	282.73
175.056	283.29
175.29	283.04
175.524	282.65
175.758	282.71
175.992	283.07
176.226	282.33
176.46	282.51
176.694	282.47
176.928	283.67
177.162	285.15
177.396	286.6
177.63	288.27
177.864	288.93
178.097	289.38
178.331	289.87
178.565	291.64
178.799	291.96
179.033	291.93
179.267	292.31
179.5	293
179.734	293.24
179.968	294.24
180.202	294.95
180.436	296.18
180.669	296.71
180.903	298.05
181.137	297.89
181.371	298.89
181.604	300.64
181.838	302.07
182.072	303
182.305	304.45
182.539	305.13
182.772	305.6
183.006	307.05
183.24	307.89
183.473	311.11
183.707	312.53
183.94	314.29
184.174	315.2
184.408	317.18
184.641	318.29
184.875	319.13
185.108	320.53
185.342	322.96
185.575	325.11
185.808	327.29
186.042	327.22
186.275	328.29
186.509	329.96
186.742	331.33
186.976	332.07
187.209	333.44
187.442	335.04
187.676	336.38
187.909	336.75
188.142	336.47
188.376	338.18
188.609	339.13
188.842	340.71
189.076	341.78
189.309	344.35
189.542	345.42
189.775	347.18
190.009	348.62
190.242	351.55
190.475	352.93
190.708	354.91
190.941	356.22
191.174	356.8
191.408	358.2
191.641	359.8
191.874	361.44
192.107	365.02
192.34	366.02
192.573	367.85
192.806	368.69
193.039	370.38
193.272	372.75
193.505	373.75
193.738	376.25
193.971	378.98
194.204	381.07
194.437	382.04
194.67	382.29
194.903	383.24
195.136	384.78
195.369	385.87
195.602	387.58
195.835	389.95
196.068	393.38
196.301	394.22
196.533	395.53
196.766	397.05
196.999	399.45
197.232	401.6
197.465	403.62
197.698	405.98
197.93	407.6
198.163	409.29
198.396	411.93
198.629	413.29
198.861	416.13
199.094	419.24
199.327	421.11
199.559	422.27
199.792	424.75
200.025	429.22
200.257	430.84
200.49	434.35
200.723	436.91
200.955	438.31
201.188	439.78
201.42	442.8
201.653	445.29
201.886	447.09
202.118	449.69
202.351	451.42
202.583	452.44
202.816	455.25
203.048	457.25
203.281	460.07
203.513	461.71
203.745	465.45
203.978	467.2
204.21	467.93
204.443	469.73
204.675	471.49
204.907	473.78
205.14	475.36
205.372	477.47
205.605	479.64
205.837	481.05
206.069	483.65
206.302	483.71
206.534	485.85
206.766	488.16
206.998	492.55
207.231	495.07
207.463	497.29
207.695	499.82
207.927	501.38
208.159	504.07
208.392	505.89
208.624	507.22
208.856	509.84
209.088	511.33
209.32	512.18
209.552	512.89
209.784	514.09
210.017	517.29
210.249	519.11
210.481	521
210.713	522.16
210.945	524.45
211.177	526.58
211.409	529.51
211.641	531.65
211.873	534.8
212.105	536.47
212.337	539.96
212.569	540.24
212.801	543.09
213.033	545.76
213.264	547.27
213.496	548.56
213.728	550.95
213.96	553.16
214.192	555.25
214.424	557.11
214.656	560.49
214.887	563.49
215.119	566.53
215.351	567.6
215.583	568.6
215.815	570.29
216.046	573.89
216.278	575
216.51	576.45
216.741	579.47
216.973	579.95
217.205	580.56
217.436	580.84
217.668	582.33
217.9	583.51
218.131	584.13
218.363	585.82
218.595	585.8
218.826	586.98
219.058	587.87
219.289	587.31
219.521	589.65
219.752	591.36
219.984	591.53
220.215	591.6
220.447	592.65
220.678	594.15
220.91	596.44
221.141	597.75
221.373	598.33
221.604	599.31
221.836	601.15
222.067	603.04
222.298	602.33
222.53	604.31
222.761	605.69
222.993	606.76
223.224	607.85
223.455	608.15
223.686	608.95
223.918	610.4
224.149	612.15
224.38	612.33
224.612	611.98
224.843	613.05
225.074	613.44
225.305	614.4
225.536	615.13
225.768	616.96
225.999	617.53
226.23	618.18
226.461	618.25
226.692	618.64
226.923	620.36
227.155	623.24
227.386	625.36
227.617	626.29
227.848	626.09
228.079	627.75
228.31	627.15
228.541	626.49
228.772	627.2
229.003	629.04
229.234	628.4
229.465	626.36
229.696	624.55
229.927	623.11
230.158	623.13
230.389	623.67
230.62	624.09
230.85	624.42
231.081	624.93
231.312	624.49
231.543	624.25
231.774	624.64
232.005	625.6
232.236	625.78
232.466	626.33
232.697	625.78
232.928	625.64
233.159	623.35
233.389	623.93
233.62	624.98
233.851	623.82
234.082	624.22
234.312	624.15
234.543	623.87
234.774	623.11
235.004	622.27
235.235	622.36
235.466	621.82
235.696	623.15
235.927	622.38
236.157	620.56
236.388	621.11
236.618	618.84
236.849	619.91
237.08	620.18
237.31	620.58
237.541	620.2
237.771	619.38
238.002	619.8
238.232	618.87
238.463	618.18
238.693	619.07
238.923	618.98
239.154	619.96
239.384	616.91
239.615	617.56
239.845	615.09
240.075	616.13
240.306	614.85
240.536	614.6
240.766	614.33
240.997	613.27
241.227	612.35
241.457	611.8
241.687	612.05
241.918	612.42
242.148	610.13
242.378	611.58
242.608	610.05
242.839	610.35
243.069	608.85
243.299	608.62
243.529	610.24
243.759	609.45
243.989	609.31
244.22	607.31
244.45	607.33
244.68	607.76
244.91	607.18
245.14	606.91
245.37	607.11
245.6	608.16
245.83	606.65
246.06	605.36
246.29	605.05
246.52	604.85
246.75	605.58
246.98	605.22
247.21	604.45
247.44	603.29
247.67	602.8
247.9	602.05
248.13	600.4
248.359	601.2
248.589	598.87
248.819	599
249.049	597.55
249.279	596.62
249.509	595.16
249.738	595.6
249.968	595.91
250.198	596.24
250.428	595.67
250.657	595.11
250.887	593.64
251.117	595.56
251.347	594.04
251.576	593.85
251.806	594.65
252.036	594.2
252.265	592.56
252.495	591.8
252.725	591.25
252.954	591.13
253.184	590.09
253.413	589.73
253.643	587.64
253.873	587.15
254.102	586.09
254.332	583.8
254.561	585
254.791	584.91
255.02	584.98
255.25	582.47
255.479	580.13
255.708	580.4
255.938	579.73
256.167	578.98
256.397	578.51
256.626	578.55
256.856	578.56
257.085	576.45
257.314	576.16
257.544	575.35
257.773	576.18
258.002	577.62
258.232	575.62
258.461	574.89
258.69	574.13
258.919	572.15
259.149	571.22
259.378	569.71
259.607	568.89
259.836	567.85
260.065	566.15
260.295	565.67
260.524	564.29
260.753	564.58
260.982	563.82
261.211	564.56
261.44	565.09
261.669	565.67
261.899	564.49
262.128	564.05
262.357	562.89
262.586	563.2
262.815	562.36
263.044	561.22
263.273	563.11
263.502	563
263.731	560.98
263.96	560.31
264.189	557.69
264.418	557.6
264.646	556.42
264.875	556.07
265.104	554.91
265.333	554.05
265.562	553.84
265.791	550.49
266.02	548.78
266.249	547.82
266.477	547.35
266.706	547.18
266.935	546.13
267.164	545.44
267.393	544.58
267.621	544.55
267.85	543.55
268.079	543.11
268.307	541.55
268.536	541.25
268.765	541.95
268.993	540.93
269.222	540.15
269.451	540.75
269.679	540.95
269.908	541.11
270.137	539.87
270.365	539.29
270.594	539.04
270.822	539.11
271.051	539.78
271.279	539.89
271.508	539.89
271.736	540.25
271.965	540.16
272.193	539.33
272.422	540.4
272.65	542.02
272.879	542.89
273.107	542.55
273.336	542.64
273.564	541.98
273.792	540.04
274.021	538.8
274.249	538.15
274.477	537.51
274.706	537.02
274.934	533.96
275.162	532
275.391	530.45
275.619	528.75
275.847	527.29
276.075	525.22
276.304	525.2
276.532	525.29
276.76	523.38
276.988	521.76
277.216	522.02
277.445	521.13
277.673	520.33
277.901	519.73
278.129	519.2
278.357	518.64
278.585	519.87
278.813	519.69
279.041	518.71
279.269	520.07
279.497	518.93
279.725	517.2
279.954	516.87
280.182	515.58
280.41	514.55
280.637	514.2
280.865	514.44
281.093	512.98
281.321	512.29
281.549	511.89
281.777	510.35
282.005	510.35
282.233	510.69
282.461	509.62
282.689	508.38
282.916	508.67
283.144	509.42
283.372	508.58
283.6	509.04
283.828	506.67
284.055	507.24
284.283	507
284.511	506.4
284.739	505.67
284.966	507.51
285.194	508.64
285.422	507.67
285.649	506.05
285.877	505.53
286.105	504.69
286.332	505.27
286.56	504.69
286.788	503.6
287.015	503.35
287.243	500.62
287.47	497.51
287.698	496.67
287.925	496.73
288.153	496.16
288.381	494.89
288.608	493.91
288.836	492.69
289.063	491.53
289.29	490.98
289.518	490.51
289.745	491.58
289.973	492.02
290.2	491.95
290.428	489.96
290.655	488.24
290.882	488.44
291.11	488
291.337	487.91
291.564	486.16
291.792	485.38
292.019	484.27
292.246	484.51
292.473	483.35
292.701	481.4
292.928	482.42
293.155	483.82
293.382	482.87
293.61	481.96
293.837	481.75
294.064	482.02
294.291	480.82
294.518	481.16
294.745	480.47
294.972	481.11
295.2	481.71
295.427	481.05
295.654	480.47
295.881	481.42
296.108	481.15
296.335	480.73
296.562	480.47
296.789	481.22
297.016	480.44
297.243	478.98
297.47	478.38
297.697	476.49
297.924	475.35
298.151	473.93
298.378	472.64
298.604	471.51
298.831	471.51
299.058	470.84
299.285	470.65
299.512	469.69
299.739	469.16
299.966	468.05
300.192	468.64
300.419	468.49
300.646	468.85
300.873	468.02
301.099	468.8
301.326	467.62
301.553	466.93
301.78	466.64
302.006	466.35
302.233	466.69
302.46	467.2
302.686	466.22
302.913	464.82
303.14	462.84
303.366	463.42
303.593	463.13
303.819	462.51
304.046	462.84
304.272	462.62
304.499	462.42
304.725	461.65
304.952	460.42
305.179	459.4
305.405	459.82
305.631	460
305.858	458.55
306.084	457.47
306.311	457.62
306.537	456.13
306.764	453.95
306.99	453.53
307.216	454.02
307.443	453.56
307.669	453.91
307.895	453.84
308.122	454.09
308.348	453.64
308.574	453.2
308.801	453.02
309.027	453.62
309.253	455
309.479	454.75
309.706	454.27
309.932	453.93
310.158	454.96
310.384	454.64
310.61	455.04
310.837	454.96
311.063	454.44
311.289	454.2
311.515	454.38
311.741	453.69
311.967	453.84
312.193	453.6
312.419	453.78
312.645	452.98
312.871	452.25
313.097	452.02
313.323	452.16
313.549	453.09
313.775	452.24
314.001	452.33
314.227	452.35
314.453	452.6
314.679	453.38
314.905	453.07
315.131	452.8
315.357	454.04
315.583	453.65
315.809	453.78
316.034	453.78
316.26	455.47
316.486	455.65
316.712	456.13
316.938	455.47
317.163	455.36
317.389	456.24
317.615	456.33
317.841	456.51
318.066	457.84
318.292	458.64
318.518	459.53
318.743	458.96
318.969	460
319.195	460.38
319.42	461.89
319.646	462.75
319.872	463.87
320.097	466.29
320.323	466.22
320.548	466.18
320.774	468.02
320.999	468.55
321.225	471
321.45	470.29
321.676	472.24
321.901	473.07
322.127	474.2
322.352	474.84
322.578	475.35
322.803	477.76
323.029	480.04
323.254	480.98
323.479	482.16
323.705	482.89
323.93	485.89
324.155	487.42
324.381	490.58
324.606	493
324.831	496.53
325.057	498.49
325.282	500.8
325.507	503.02
325.732	505.16
325.958	507.78
326.183	510.71
326.408	512.49
326.633	515.35
326.858	517.24
327.084	518.95
327.309	521.02
327.534	523.15
327.759	525.8
327.984	528.56
328.209	531.07
328.434	534.62
328.659	537.78
328.884	541.11
329.109	543.4
329.334	547
329.559	551.25
329.784	554.07
330.009	557.67
330.234	560.82
330.459	564.24
330.684	567.84
330.909	570.84
331.134	574.4
331.359	577.91
331.584	582.02
331.809	585.22
332.034	588.45
332.259	592.95
332.483	597.42
332.708	601.16
332.933	606.07
333.158	610.78
333.383	615.45
333.607	620.29
333.832	625.82
334.057	631.56
334.282	636.44
334.506	642.02
334.731	647.67
334.956	653.11
335.18	658.69
335.405	663.35
335.63	668.53
335.854	673.35
336.079	678.67
336.303	684.42
336.528	691.13
336.753	697.47
336.977	703.02
337.202	708.56
337.426	715.04
337.651	722.25
337.875	730.27
338.1	737.02
338.324	744.56
338.549	751.11
338.773	758.16
338.997	763.78
339.222	769.71
339.446	775.95
339.671	783.55
339.895	791.64
340.119	799.78
340.344	805.84
340.568	814.13
340.792	822.2
341.017	831.31
341.241	838.65
341.465	844.93
341.689	854.64
341.914	863.73
342.138	870.44
342.362	876.85
342.586	885.4
342.811	893.89
343.035	901.09
343.259	909.16
343.483	916.93
343.707	926.75
343.931	938.6
344.155	946.67
344.38	956.47
344.604	968.55
344.828	978.13
345.052	987.11
345.276	996.6
345.5	1006.16
345.724	1016.33
345.948	1024.71
346.172	1033.8
346.396	1041.25
346.62	1052.38
346.844	1062.69
347.068	1071.25
347.292	1083.42
347.515	1092.6
347.739	1103.6
347.963	1114.49
348.187	1124.49
348.411	1136.36
348.635	1146.96
348.859	1158.65
349.082	1168
349.306	1175.6
349.53	1185.25
349.754	1194.33
349.977	1204.95
350.201	1214.84
350.425	1225.62
350.649	1235.91
350.872	1249.22
351.096	1262.27
351.32	1272.82
351.543	1284.33
351.767	1296.51
351.99	1309
352.214	1320.29
352.438	1332.55
352.661	1344.44
352.885	1357.09
353.108	1367.4
353.332	1374.67
353.555	1384.13
353.779	1395.18
354.002	1406.56
354.226	1420.89
354.449	1431.38
354.673	1444.91
354.896	1455.73
355.12	1467.24
355.343	1477.89
355.566	1491.38
355.79	1504.87
356.013	1515.36
356.237	1528.55
356.46	1540.4
356.683	1550.87
356.907	1565.18
357.13	1576.62
357.353	1591.29
357.576	1604.02
357.8	1615.71
358.023	1626.6
358.246	1640.05
358.469	1654.62
358.693	1667.22
358.916	1681.33
359.139	1693.53
359.362	1705.45
359.585	1716.31
359.808	1727.44
360.031	1739.96
360.255	1754.4
360.478	1767.53
360.701	1779.93
360.924	1792.44
361.147	1806.15
361.37	1821.13
361.593	1836.55
361.816	1851.29
362.039	1866.31
362.262	1880.36
362.485	1891.65
362.708	1905.16
362.931	1919.75
363.154	1932.85
363.377	1943.56
363.599	1957.04
363.822	1969.62
364.045	1983.16
364.268	1993.24
364.491	2006.87
364.714	2021.65
364.936	2037.91
365.159	2051.36
365.382	2066.65
365.605	2082.91
365.828	2102.82
366.05	2116.16
366.273	2129.69
366.496	2144.07
366.718	2162.8
366.941	2176.73
367.164	2190.55
367.386	2205.67
367.609	2221.18
367.832	2236.38
368.054	2252.27
368.277	2265.91
368.5	2284.09
368.722	2300.04
368.945	2316.31
369.167	2331.18
369.39	2347.4
369.612	2365.31
369.835	2384.35
370.057	2402.49
370.28	2421.25
370.502	2438.76
370.725	2455.85
370.947	2471.44
371.169	2490.71
371.392	2509
371.614	2524.71
371.837	2545.69
372.059	2560.82
372.281	2575.44
372.504	2590.49
372.726	2606.78
372.948	2622.31
373.171	2640.02
373.393	2658.11
373.615	2670.87
373.837	2686.85
374.06	2703.84
374.282	2716.8
374.504	2735.36
374.726	2753.96
374.948	2771.71
375.17	2789.84
375.393	2807.78
375.615	2827.69
375.837	2845.93
376.059	2865.36
376.281	2884.33
376.503	2904.25
376.725	2927.24
376.947	2945.29
377.169	2964.45
377.391	2987.24
377.613	3008.05
377.835	3028.42
378.057	3047.11
378.279	3066.45
378.501	3092.96
378.723	3116.2
378.945	3139.91
379.167	3159.02
379.389	3184.47
379.611	3206.85
379.833	3227.09
380.054	3249.13
380.276	3273.4
380.498	3297.31
380.72	3320.13
380.942	3342.24
381.163	3365.38
381.385	3390.42
381.607	3416.93
381.829	3439.62
382.05	3461.75
382.272	3490.78
382.494	3517.91
382.716	3540.35
382.937	3565.76
383.159	3593.64
383.381	3616.29
383.602	3638.35
383.824	3662.51
384.045	3689.8
384.267	3715.55
384.488	3743.36
384.71	3767.96
384.932	3792.18
385.153	3818.64
385.375	3844.25
385.596	3869.76
385.818	3898.53
386.039	3928.27
386.261	3954.75
386.482	3981.91
386.703	4007.67
386.925	4035.75
387.146	4062.4
387.368	4090.25
387.589	4118.51
387.81	4148.11
388.032	4177.96
388.253	4204.96
388.474	4229.82
388.696	4261.16
388.917	4288.78
389.138	4321.04
389.359	4352.76
389.581	4383.27
389.802	4412.8
390.023	4442.56
390.244	4471.82
390.465	4499.07
390.687	4529.64
390.908	4563
391.129	4590.27
391.35	4621.24
391.571	4650.67
391.792	4680.16
392.013	4711.36
392.234	4741.71
392.455	4773.76
392.677	4804.36
392.898	4841.84
393.119	4872.96
393.34	4902.91
393.561	4935.75
393.782	4965.36
394.003	4998.15
394.223	5029.85
394.444	5058.71
394.665	5092.58
394.886	5123.89
395.107	5157.2
395.328	5184.4
395.549	5215.65
395.77	5251.31
395.99	5283.96
396.211	5315.85
396.432	5347.84
396.653	5376.51
396.874	5414.16
397.094	5449.13
397.315	5484.38
397.536	5515.53
397.757	5551.71
397.977	5587.8
398.198	5623.33
398.419	5658.2
398.639	5692.27
398.86	5726.29
399.081	5765.24
399.301	5797.65
399.522	5828.38
399.742	5860.36
399.963	5895.51
400.184	5928.25
400.404	5961.78
400.625	5992.38
400.845	6023.78
401.066	6059.91
401.286	6094.73
401.507	6128.31
401.727	6163.09
401.948	6196.27
402.168	6231.36
402.388	6266.27
402.609	6301.02
402.829	6333.02
403.05	6367.58
403.27	6402.95
403.49	6434.67
403.711	6468
403.931	6504.89
404.151	6540.27
404.372	6576.31
404.592	6612.84
404.812	6650.33
405.032	6681.93
405.253	6716.58
405.473	6753.51
405.693	6788.13
405.913	6824.87
406.133	6855.36
406.353	6890.25
406.574	6922.29
406.794	6959.09
407.014	6994.07
407.234	7024.16
407.454	7062.67
407.674	7099.15
407.894	7133.51
408.114	7173.65
408.334	7210.53
408.554	7252.22
408.774	7287.6
408.994	7324.16
409.214	7361.53
409.434	7396.87
409.654	7434.56
409.874	7474.29
410.094	7513.05
410.314	7550.58
410.534	7581.69
410.754	7619.42
410.974	7655.82
411.193	7691.96
411.413	7730.02
411.633	7765.13
411.853	7806.93
412.073	7846.35
412.292	7877.13
412.512	7916.51
412.732	7954.16
412.952	7995.36
413.171	8034.18
413.391	8074.75
413.611	8114.11
413.831	8156.31
414.05	8198.25
414.27	8238.24
414.489	8285.11
414.709	8331.02
414.929	8372.15
415.148	8414.96
415.368	8454.69
415.587	8501.91
415.807	8544
416.026	8591
416.246	8633.98
416.465	8680.87
416.685	8727.49
416.904	8762.82
417.124	8811.47
417.343	8857.29
417.563	8902.65
417.782	8954.96
418.002	8996.2
418.221	9040.05
418.44	9082.71
418.66	9126.93
418.879	9170.73
419.098	9209.13
419.318	9256.31
419.537	9298.22
419.756	9342.15
419.976	9386.96
420.195	9423.65
420.414	9464.62
420.633	9510.58
420.853	9551.29
421.072	9595.73
421.291	9640.29
421.51	9686.36
421.729	9729.87
421.948	9771.15
422.168	9809.95
422.387	9851.76
422.606	9901.07
422.825	9945.38
423.044	9990.87
423.263	10038.71
423.482	10081.49
423.701	10123.82
423.92	10169.02
424.139	10214.24
424.358	10257.89
424.577	10310.22
424.796	10354.82
425.015	10401.55
425.234	10449.33
425.453	10493.22
425.672	10535.13
425.891	10578.96
426.11	10626.05
426.328	10673.87
426.547	10717.07
426.766	10770.75
426.985	10814.13
427.204	10858.18
427.422	10903.8
427.641	10954.11
427.86	11005.36
428.079	11054.38
428.297	11107.09
428.516	11152.44
428.735	11200
428.954	11254.76
429.172	11297.96
429.391	11346.49
429.61	11401.33
429.828	11449.84
430.047	11498.76
430.265	11541.2
430.484	11588.13
430.703	11632.15
430.921	11678.04
431.14	11721.89
431.358	11767.15
431.577	11814.69
431.795	11858.76
432.014	11904.98
432.232	11954.96
432.451	12003.38
432.669	12056.04
432.887	12104.29
433.106	12156.25
433.324	12205.82
433.543	12252.87
433.761	12303.49
433.979	12355.65
434.198	12409.07
434.416	12455.11
434.634	12492.64
434.853	12531.8
435.071	12577.75
435.289	12625.62
435.507	12670.78
435.726	12717.85
435.944	12763.04
436.162	12802.13
436.38	12847.33
436.598	12891.85
436.817	12944.25
437.035	12995.44
437.253	13046.15
437.471	13092.44
437.689	13142.02
437.907	13189.35
438.125	13238.51
438.343	13288.87
438.561	13343.75
438.78	13382.89
438.998	13428.76
439.216	13469.4
439.434	13520.15
439.652	13561.38
439.869	13610.25
440.087	13649.47
440.305	13696.38
440.523	13743.38
440.741	13787.31
440.959	13831.69
441.177	13884.04
441.395	13934.98
441.613	13986.16
441.831	14021.67
442.048	14077.58
442.266	14116.47
442.484	14169.95
442.702	14217.98
442.919	14261.65
443.137	14311.16
443.355	14360.47
443.573	14414.64
443.79	14462.13
444.008	14511.4
444.226	14569.11
444.443	14616.05
444.661	14667.35
444.879	14714.84
445.096	14765.56
445.314	14818.29
445.532	14871.36
445.749	14916.62
445.967	14955.64
446.184	15002.02
446.402	15040.76
446.619	15091.91
446.837	15132.47
447.054	15180.53
447.272	15226.27
447.489	15265.91
447.707	15308
447.924	15355.89
448.141	15400.55
448.359	15454.75
448.576	15500.11
448.794	15559.05
449.011	15605.31
449.228	15657.16
449.446	15711.15
449.663	15756.4
449.88	15807.49
450.098	15860.98
450.315	15906.25
450.532	15960.51
450.749	16007.09
450.967	16056.36
451.184	16103.33
451.401	16152.09
451.618	16201.75
451.835	16244.71
452.052	16296.38
452.27	16347.89
452.487	16392.25
452.704	16442.89
452.921	16491.02
453.138	16539.85
453.355	16587.69
453.572	16629.05
453.789	16681
454.006	16731.13
454.223	16778.18
454.44	16828.85
454.657	16869.85
454.874	16918.89
455.091	16961.82
455.308	17010.22
455.525	17054.69
455.742	17102.78
455.959	17154.31
456.176	17201.11
456.393	17248.51
456.609	17298.85
456.826	17347.91
457.043	17405.84
457.26	17452.22
457.477	17501.42
457.693	17538.45
457.91	17582.33
458.127	17628.25
458.344	17668.51
458.56	17709.78
458.777	17746.47
458.994	17781.75
459.21	17816.31
459.427	17842.24
459.644	17873.67
459.86	17903.29
460.077	17940.69
460.294	17985.8
460.51	18015.71
460.727	18057.25
460.943	18085.64
461.16	18126.29
461.376	18164.45
461.593	18204.15
461.809	18248.93
462.026	18297.91
462.242	18342.33
462.459	18384.73
462.675	18415.65
462.892	18456.31
463.108	18491.35
463.324	18540.53
463.541	18575.55
463.757	18621.55
463.974	18666.04
464.19	18710.89
464.406	18747.29
464.623	18787.73
464.839	18837.69
465.055	18887.22
465.271	18940.16
465.488	18988.73
465.704	19029.69
465.92	19078.93
466.136	19119.85
466.353	19162.93
466.569	19209.38
466.785	19264.07
467.001	19321.05
467.217	19372.58
467.433	19433.64
467.649	19490.93
467.865	19549.69
468.082	19606.15
468.298	19669.35
468.514	19739.05
468.73	19805.6
468.946	19866.47
469.162	19933.55
469.378	20000.53
469.594	20059.51
469.81	20115.38
470.026	20173.13
470.242	20238.73
470.457	20305.69
470.673	20369.78
470.889	20435.16
471.105	20502.27
471.321	20573.36
471.537	20637.95
471.753	20704.56
471.968	20779.15
472.184	20851.27
472.4	20924.98
472.616	20999.53
472.832	21071.2
473.047	21144.67
473.263	21213
473.479	21286.47
473.694	21357.67
473.91	21429.49
474.126	21503.58
474.341	21577.31
474.557	21649
474.773	21716.64
474.988	21781.89
475.204	21856.45
475.42	21931.67
475.635	22004.02
475.851	22070.67
476.066	22143.09
476.282	22216.89
476.497	22285.87
476.713	22360.49
476.928	22422.84
477.144	22497.24
477.359	22567.95
477.575	22632.95
477.79	22694.64
478.005	22760.15
478.221	22816.53
478.436	22873.38
478.651	22932.36
478.867	22988.98
479.082	23041.85
479.297	23105.84
479.513	23156.44
479.728	23204.53
479.943	23255.62
480.159	23306.35
480.374	23363.64
480.589	23430.15
480.804	23487.33
481.019	23538.6
481.235	23587.4
481.45	23631.93
481.665	23674.22
481.88	23725.62
482.095	23778.33
482.31	23837.13
482.525	23887.4
482.741	23933.62
482.956	23973.36
483.171	24022.55
483.386	24071.89
483.601	24122.44
483.816	24167.35
484.031	24216.96
484.246	24257.38
484.461	24302.87
484.676	24340.05
484.891	24387.96
485.105	24427.13
485.32	24473.78
485.535	24513.51
485.75	24549.82
485.965	24590.05
486.18	24640.93
486.395	24686.55
486.609	24732.89
486.824	24772.09
487.039	24816.75
487.254	24852.45
487.469	24893.65
487.683	24932.6
487.898	24967.95
488.113	25009.25
488.327	25043.71
488.542	25077.27
488.757	25116.76
488.972	25156.76
489.186	25196.35
489.401	25227.55
489.615	25265.27
489.83	25297.98
490.045	25339.67
490.259	25377.4
490.474	25402.18
490.688	25435.95
490.903	25466.24
491.117	25492.44
491.332	25521.91
491.546	25551.18
491.761	25585.73
491.975	25623.31
492.19	25659.02
492.404	25687.04
492.618	25719.98
492.833	25761.25
493.047	25798.69
493.262	25828.05
493.476	25855.84
493.69	25891.44
493.905	25923.93
494.119	25950.49
494.333	25967
494.547	25994.15
494.762	26023.85
494.976	26052.85
495.19	26073.15
495.404	26096.47
495.619	26127.91
495.833	26155.53
496.047	26173.6
496.261	26189.55
496.475	26199.22
496.689	26210.56
496.903	26212.33
497.117	26205.42
497.332	26201.69
497.546	26197.04
497.76	26193.65
497.974	26176.71
498.188	26166.95
498.402	26150.76
498.616	26143.31
498.83	26137.16
499.044	26136.67
499.258	26136.45
499.472	26144.29
499.685	26147.4
499.899	26152.62
500.113	26157.8
500.327	26165.05
500.541	26175.24
500.755	26195.95
500.969	26206.65
501.183	26230.25
501.396	26248.82
501.61	26271.27
501.824	26289.02
502.038	26307.96
502.251	26335.44
502.465	26357.2
502.679	26384.09
502.892	26406.53
503.106	26424.09
503.32	26441.49
503.533	26466.24
503.747	26492.51
503.961	26507.62
504.174	26528.73
504.388	26553.18
504.602	26583.24
504.815	26617.45
505.029	26655.95
505.242	26699.22
505.456	26742.73
505.669	26788.18
505.883	26822.27
506.096	26871.69
506.31	26927.87
506.523	26975.25
506.736	27026.38
506.95	27073.91
507.163	27126.47
507.377	27175.91
507.59	27229.25
507.803	27288.65
508.017	27354.27
508.23	27425.36
508.443	27483.25
508.657	27545.8
508.87	27616.09
509.083	27689.38
509.296	27771.8
509.51	27845.93
509.723	27933.8
509.936	28008.73
510.149	28088.44
510.363	28176.96
510.576	28258.75
510.789	28348.18
511.002	28445.13
511.215	28547.4
511.428	28642.89
511.641	28734.71
511.854	28833.45
512.067	28928.89
512.28	29036.2
512.493	29131.53
512.707	29235.38
512.92	29344.07
513.132	29444.24
513.345	29554.45
513.558	29654.02
513.771	29757.82
513.984	29860.07
514.197	29965.55
514.41	30070.2
514.623	30170.76
514.836	30281.56
515.049	30380.38
515.262	30478.18
515.474	30589.05
515.687	30684.36
515.9	30785.49
516.113	30884.16
516.325	30987.33
516.538	31078.02
516.751	31166.42
516.964	31254.49
517.176	31337.53
517.389	31428.89
517.602	31507.65
517.814	31587.15
518.027	31665.64
518.24	31740.13
518.452	31827.78
518.665	31891.67
518.877	31968.64
519.09	32045.47
519.303	32125.75
519.515	32195.96
519.728	32259.91
519.94	32335.55
520.153	32401.6
520.365	32467.95
520.578	32533.76
520.79	32590.31
521.002	32654.35
521.215	32713.64
521.427	32773.38
521.64	32819.16
521.852	32880.07
522.064	32933.78
522.277	32992.69
522.489	33041.45
522.701	33086.73
522.914	33141.49
523.126	33193.95
523.338	33247.75
523.551	33302.62
523.763	33343.36
523.975	33396.85
524.187	33443.98
524.399	33490.73
524.612	33529.93
524.824	33578.33
525.036	33626.96
525.248	33669.67
525.46	33709.24
525.672	33754.29
525.884	33791.87
526.096	33833.42
526.308	33869.8
526.521	33901.2
526.733	33928.49
526.945	33956.6
527.157	33979.73
527.369	34010.96
527.581	34032.29
527.793	34061.76
528.004	34086.8
528.216	34111.24
528.428	34143.29
528.64	34169.04
528.852	34196.85
529.064	34228.85
529.276	34256.16
529.488	34287.33
529.699	34309.56
529.911	34332.27
530.123	34355.24
530.335	34377.29
530.547	34401.49
530.758	34420.33
530.97	34449.98
531.182	34480.55
531.393	34507.07
531.605	34544.85
531.817	34584.87
532.029	34621.62
532.24	34660.84
532.452	34683.56
532.663	34711.33
532.875	34734.49
533.087	34759.76
533.298	34785.44
533.51	34806.4
533.721	34825.89
533.933	34840.02
534.144	34835.89
534.356	34849.47
534.567	34869.07
534.779	34891.64
534.99	34914.16
535.202	34936.85
535.413	34960.24
535.624	34980.89
535.836	35000.04
536.047	35016.76
536.259	35028.55
536.47	35052.67
536.681	35069.49
536.893	35081.49
537.104	35094.15
537.315	35105.93
537.526	35125.13
537.738	35139.07
537.949	35147.38
538.16	35165.27
538.371	35188.13
538.582	35218.4
538.794	35242.76
539.005	35257.38
539.216	35277.75
539.427	35295.53
539.638	35304.53
539.849	35308.36
540.06	35315.29
540.272	35330.64
540.483	35330.98
540.694	35327.78
540.905	35331.58
541.116	35345.53
541.327	35362.87
541.538	35366.44
541.749	35372.55
541.96	35390.56
542.17	35404.15
542.381	35415.38
542.592	35417.93
542.803	35432.09
543.014	35449.58
543.225	35446.93
543.436	35446.11
543.647	35448.65
543.857	35454.18
544.068	35464.45
544.279	35468.8
544.49	35480.89
544.701	35491.36
544.911	35504.95
545.122	35513.18
545.333	35519.87
545.543	35540.49
545.754	35551.35
545.965	35563.02
546.175	35577.96
546.386	35597.42
546.597	35602.85
546.807	35602.51
547.018	35610.55
547.229	35609.75
547.439	35611.95
547.65	35623.56
547.86	35618.11
548.071	35620.51
548.281	35620.58
548.492	35624.65
548.702	35621.16
548.913	35630.93
549.123	35634.56
549.333	35643.27
549.544	35657.98
549.754	35673.78
549.965	35682.45
550.175	35705.29
550.385	35725.58
550.596	35737.96
550.806	35741.98
551.016	35746.71
551.227	35748.56
551.437	35759.33
551.647	35768.09
551.857	35773.18
552.068	35782.27
552.278	35787.05
552.488	35781.35
552.698	35779.24
552.908	35787.82
553.119	35793.55
553.329	35797.44
553.539	35795.25
553.749	35792.2
553.959	35785.15
554.169	35784.67
554.379	35784.67
554.589	35776.22
554.799	35773.16
555.009	35769.91
555.219	35762.69
555.429	35753.76
555.639	35750.49
555.849	35753.51
556.059	35760.49
556.269	35756.69
556.479	35757.96
556.689	35751.22
556.899	35756.13
557.109	35757.49
557.319	35768.87
557.528	35757.96
557.738	35764.13
557.948	35759.55
558.158	35747.27
558.368	35736.05
558.577	35725.4
558.787	35714.93
558.997	35710.33
559.207	35693.71
559.416	35686.76
559.626	35659.84
559.836	35647.87
560.045	35645.24
560.255	35646.51
560.465	35644.78
560.674	35639.96
560.884	35643.07
561.093	35630.87
561.303	35618.25
561.512	35617.44
561.722	35606.11
561.932	35609.89
562.141	35618.04
562.351	35604.87
562.56	35595.31
562.769	35599.98
562.979	35598.47
563.188	35591.8
563.398	35603.11
563.607	35609.42
563.817	35614.4
564.026	35616.18
564.235	35594.78
564.445	35583.24
564.654	35569.55
564.863	35553.53
565.073	35531.29
565.282	35518.71
565.491	35498.98
565.7	35460.8
565.91	35431.05
566.119	35400.18
566.328	35377.62
566.537	35361.49
566.746	35344.82
566.956	35330.6
567.165	35316.11
567.374	35311.38
567.583	35298.82
567.792	35286.2
568.001	35282.84
568.21	35272.75
568.419	35248.76
568.628	35215.62
568.837	35187.29
569.046	35160.78
569.255	35125.84
569.464	35097.13
569.673	35060.51
569.882	35029.15
570.091	35009.53
570.3	34975.6
570.509	34945.96
570.718	34930.4
570.927	34923.78
571.135	34920.27
571.344	34903.78
571.553	34908.09
571.762	34905.78
571.971	34895.56
572.18	34882.95
572.388	34869.62
572.597	34854.6
572.806	34840.65
573.014	34821.09
573.223	34803.96
573.432	34780.38
573.641	34764.07
573.849	34731.78
574.058	34703.98
574.266	34683.96
574.475	34658.78
574.684	34631.89
574.892	34626.45
575.101	34610.05
575.309	34592.71
575.518	34572.96
575.726	34551.56
575.935	34532.49
576.143	34513.22
576.352	34501.76
576.56	34477.87
576.769	34460.69
576.977	34451.6
577.186	34426.09
577.394	34400.25
577.602	34382.4
577.811	34359.98
578.019	34337.62
578.228	34307.15
578.436	34288.04
578.644	34260.35
578.852	34234.42
579.061	34204.04
579.269	34166.8
579.477	34139.16
579.685	34116.76
579.894	34087.58
580.102	34067.36
580.31	34047.87
580.518	34029.69
580.726	34007.64
580.935	33976.05
581.143	33958.11
581.351	33937.07
581.559	33913
581.767	33886.65
581.975	33857.62
582.183	33842.09
582.391	33811.44
582.599	33790.67
582.807	33756.2
583.015	33724.18
583.223	33698.76
583.431	33675.73
583.639	33659.04
583.847	33646.56
584.055	33631.33
584.263	33609.31
584.471	33585.64
584.678	33571.75
584.886	33547.13
585.094	33534.04
585.302	33511.35
585.51	33486.75
585.718	33461.22
585.925	33425.96
586.133	33402.53
586.341	33375.15
586.549	33355.98
586.756	33330.95
586.964	33304.29
587.172	33273.22
587.379	33240.93
587.587	33220.98
587.795	33194.18
588.002	33174.05
588.21	33155.85
588.417	33110.53
588.625	33081.73
588.833	33047.13
589.04	33017.78
589.248	32995.49
589.455	32966.2
589.663	32945.98
589.87	32917.18
590.078	32898.98
590.285	32864.65
590.492	32836.11
590.7	32825.09
590.907	32796.22
591.115	32781.35
591.322	32753.84
591.529	32715.22
591.737	32690.64
591.944	32665.18
592.151	32637.64
592.359	32609.89
592.566	32578.56
592.773	32543.05
592.981	32508.95
593.188	32474.82
593.395	32438.33
593.602	32408.96
593.809	32387.22
594.017	32359.44
594.224	32325
594.431	32287.76
594.638	32248.6
594.845	32214.16
595.052	32197.16
595.259	32166.91
595.466	32137.76
595.673	32117.35
595.88	32092.27
596.088	32056.58
596.295	32035.4
596.502	32008.35
596.709	31991.84
596.915	31968.2
597.122	31948.24
597.329	31915.42
597.536	31886.18
597.743	31859.55
597.95	31822.31
598.157	31782.55
598.364	31736.84
598.571	31694.15
598.777	31647.35
598.984	31586.11
599.191	31528.11
599.398	31476.93
599.605	31420.95
599.811	31368.38
600.018	31314.6
600.225	31257.36
600.431	31209.62
600.638	31171.11
600.845	31131.58
601.052	31092.13
601.258	31055.95
601.465	31014.87
601.671	30952.09
601.878	30882.02
602.085	30801.82
602.291	30701.82
602.498	30581.05
602.704	30436.69
602.911	30277.73
603.117	30085.36
603.324	29887.49
603.53	29674.27
603.737	29453.62
603.943	29223.04
604.15	28979.24
604.356	28724.24
604.562	28467.6
604.769	28218.84
604.975	27961.07
605.181	27700.78
605.388	27439.71
605.594	27174.76
605.8	26913.95
606.007	26647.38
606.213	26382.78
606.419	26116.98
606.625	25849.49
606.832	25585.67
607.038	25316.75
607.244	25044.16
607.45	24778.85
607.656	24520
607.863	24254.95
608.069	23988.8
608.275	23719.24
608.481	23445.95
608.687	23174
608.893	22901.82
609.099	22641.64
609.305	22367.45
609.511	22104.58
609.717	21826.64
609.923	21540.36
610.129	21259.18
610.335	20971.69
610.541	20676.85
610.747	20391.44
610.953	20103.93
611.159	19810.35
611.365	19503.96
611.571	19207.85
611.776	18897.55
611.982	18591.71
612.188	18285.85
612.394	17969.02
612.6	17659.67
612.806	17354.84
613.011	17043.58
613.217	16734.4
613.423	16427.18
613.628	16114.25
613.834	15811.35
614.04	15517.87
614.246	15225.55
614.451	14944.33
614.657	14671.07
614.862	14394.62
615.068	14125.05
615.274	13866.69
615.479	13605.89
615.685	13355.11
615.89	13116.65
616.096	12870.65
616.301	12625.55
616.507	12383.89
616.712	12132.09
616.918	11886.84
617.123	11638.18
617.329	11383.47
617.534	11116.38
617.74	10857.07
617.945	10590.67
618.15	10308
618.356	9872.47
618.561	9078.62
618.766	8116.85
618.972	7129.65
619.177	6162.07
619.382	5221.16
619.588	4307.76
619.793	3766
619.998	3128
620.203	2367.13
620.408	1444.63
620.614	534.4
