Data from test1_MAYP1115451__25__10-17-17-711.txt Node

Date: Wed Jun 12 10:17:17 MDT 2024
User: Modes Lab
Spectrometer: MAYP111545
Trigger mode: 0
Integration Time (sec): 8.000000E-3
Scans to average: 5
Electric dark correction enabled: true
Nonlinearity correction enabled: false
Boxcar width: 5
XAxis mode: Wavelengths
Number of Pixels in Spectrum: 2068
>>>>>Begin Spectral Data<<<<<
165.214	164.37
165.449	164.21
165.683	172.65
165.918	181.94
166.152	188.46
166.387	193.72
166.621	125.68
166.856	164.63
167.09	183.41
167.325	207.35
167.559	223.92
167.794	238.21
168.028	246.3
168.263	248.52
168.497	247.28
168.732	248.21
168.966	249.21
169.2	251.12
169.435	251.94
169.669	253.23
169.903	254.75
170.138	256.37
170.372	257.05
170.606	257.12
170.841	258.26
171.075	261.06
171.309	262.37
171.544	264.14
171.778	265.25
172.012	267.32
172.246	269.14
172.48	270.23
172.715	271.99
172.949	273.94
173.183	277.55
173.417	278.43
173.651	279.55
173.885	280.21
174.119	281.1
174.354	281.08
174.588	281.17
174.822	281.55
175.056	281.97
175.29	281.01
175.524	281.75
175.758	280.41
175.992	280.86
176.226	281.05
176.46	282.45
176.694	282.57
176.928	283.74
177.162	285.08
177.396	285.54
177.63	287.03
177.864	287.57
178.097	287.9
178.331	289.63
178.565	290.48
178.799	290.74
179.033	291.32
179.267	292.46
179.5	293.77
179.734	293.5
179.968	295.7
180.202	295.99
180.436	298.3
180.669	299.92
180.903	300.15
181.137	301.45
181.371	302.59
181.604	301.99
181.838	302.7
182.072	303.77
182.305	305.45
182.539	305.34
182.772	306.23
183.006	307.54
183.24	307.85
183.473	311.21
183.707	311.88
183.94	313.19
184.174	315.01
184.408	316.79
184.641	317.7
184.875	318.37
185.108	320.01
185.342	320.99
185.575	321.74
185.808	322.85
186.042	322.39
186.275	322.65
186.509	323.68
186.742	325.63
186.976	325.77
187.209	326.45
187.442	329.17
187.676	330.66
187.909	332.12
188.142	334.01
188.376	334.86
188.609	335.94
188.842	338.39
189.076	340.1
189.309	341.88
189.542	343.86
189.775	345.48
190.009	345.95
190.242	347.54
190.475	349.68
190.708	350.63
190.941	353.26
191.174	354.52
191.408	356.19
191.641	358.01
191.874	358.57
192.107	360.08
192.34	362.66
192.573	364.35
192.806	366.06
193.039	367.48
193.272	369.94
193.505	371.39
193.738	374.15
193.971	376.45
194.204	377.72
194.437	379.77
194.67	381.65
194.903	383.61
195.136	386.01
195.369	387.17
195.602	388.3
195.835	389.72
196.068	392.94
196.301	394.26
196.533	396.12
196.766	398.43
196.999	401.83
197.232	403.68
197.465	405.57
197.698	406.94
197.93	410.35
198.163	413.45
198.396	415.61
198.629	416.66
198.861	419.15
199.094	420.59
199.327	423.55
199.559	424.34
199.792	427.57
200.025	429.1
200.257	431.28
200.49	432.19
200.723	434.01
200.955	436.06
201.188	438.52
201.42	441.15
201.653	445.14
201.886	446.95
202.118	450.14
202.351	452.05
202.583	454.75
202.816	457.06
203.048	459.75
203.281	461.46
203.513	463.59
203.745	465.94
203.978	467.72
204.21	469.1
204.443	470.08
204.675	470.5
204.907	472.99
205.14	475.39
205.372	476.85
205.605	478.7
205.837	482.05
206.069	484.81
206.302	486.95
206.534	488.74
206.766	489.28
206.998	491.65
207.231	495.61
207.463	496.97
207.695	499.26
207.927	501.55
208.159	503.61
208.392	504.97
208.624	506.25
208.856	507.81
209.088	510.9
209.32	514.15
209.552	517.79
209.784	519.57
210.017	521.08
210.249	522.28
210.481	525.15
210.713	527.12
210.945	529.41
211.177	532.37
211.409	534.61
211.641	536.15
211.873	538.26
212.105	539.37
212.337	539.68
212.569	541.77
212.801	543.63
213.033	546.23
213.264	548.17
213.496	550.34
213.728	550.75
213.96	552.55
214.192	553.85
214.424	555.26
214.656	557.01
214.887	560.37
215.119	562.48
215.351	564.43
215.583	565.23
215.815	567.81
216.046	568.59
216.278	570.88
216.51	571.65
216.741	572.79
216.973	574.83
217.205	574.86
217.436	576.63
217.668	578.59
217.9	579.68
218.131	580.65
218.363	581.79
218.595	582.92
218.826	585.45
219.058	588.7
219.289	589.81
219.521	590.55
219.752	592.99
219.984	592.97
220.215	593.59
220.447	595.34
220.678	597.43
220.91	597.94
221.141	598.85
221.373	599.59
221.604	599.7
221.836	602.03
222.067	602.9
222.298	603.88
222.53	605.55
222.761	606.39
222.993	607.15
223.224	608.97
223.455	609.55
223.686	611.08
223.918	611.43
224.149	611.83
224.38	612.05
224.612	613.15
224.843	614.28
225.074	615.97
225.305	618.12
225.536	618.66
225.768	618.95
225.999	618.99
226.23	619.68
226.461	619.45
226.692	620.23
226.923	621.35
227.155	623.05
227.386	623.55
227.617	621.79
227.848	620.45
228.079	621.48
228.31	622.23
228.541	624.48
228.772	624.17
229.003	624.25
229.234	624.35
229.465	623.94
229.696	622.68
229.927	622.94
230.158	622.97
230.389	623.43
230.62	622.86
230.85	622.21
231.081	621.75
231.312	623.26
231.543	624.17
231.774	624.45
232.005	624.63
232.236	625.23
232.466	624.99
232.697	625.63
232.928	627.01
233.159	627.7
233.389	627.61
233.62	627.55
233.851	625.94
234.082	625.37
234.312	624.86
234.543	623.41
234.774	622.59
235.004	623.06
235.235	623.72
235.466	622.92
235.696	622.35
235.927	622.05
236.157	621.77
236.388	622.94
236.618	622.99
236.849	623.21
237.08	624.63
237.31	624.95
237.541	624.46
237.771	623.92
238.002	622.68
238.232	621.68
238.463	620.61
238.693	620.81
238.923	620.25
239.154	619.61
239.384	618.66
239.615	617.52
239.845	616.12
240.075	615.08
240.306	615.79
240.536	616.74
240.766	616.65
240.997	615.43
241.227	614.61
241.457	614.17
241.687	613.1
241.918	613.63
242.148	612.35
242.378	613.75
242.608	612.15
242.839	610.14
243.069	608.1
243.299	608.3
243.529	610.54
243.759	608.74
243.989	608.32
244.22	609.43
244.45	608.81
244.68	609.88
244.91	609.01
245.14	610.34
245.37	611.14
245.6	611.34
245.83	609.66
246.06	608.72
246.29	608.86
246.52	606.75
246.75	606.12
246.98	606.43
247.21	606.32
247.44	604.55
247.67	603.34
247.9	602.63
248.13	601.59
248.359	600.95
248.589	599.32
248.819	599.34
249.049	600.63
249.279	600.08
249.509	599.05
249.738	598.17
249.968	598.45
250.198	598.28
250.428	598.45
250.657	598.35
250.887	597.72
251.117	598.25
251.347	597.92
251.576	596.1
251.806	594.52
252.036	592.32
252.265	591.85
252.495	591.95
252.725	591.9
252.954	590.54
253.184	589.08
253.413	588.66
253.643	587.25
253.873	586.77
254.102	586.46
254.332	586.86
254.561	587.08
254.791	586.41
255.02	584.75
255.25	583.34
255.479	581.88
255.708	582.81
255.938	582.85
256.167	581.66
256.397	580.46
256.626	579.61
256.856	578.94
257.085	578.25
257.314	577.17
257.544	575.74
257.773	575.19
258.002	574.25
258.232	572.5
258.461	572.43
258.69	572.43
258.919	571.17
259.149	571.15
259.378	569.95
259.607	569.15
259.836	569.06
260.065	569.72
260.295	568.3
260.524	568.08
260.753	567.66
260.982	566.94
261.211	565.61
261.44	565.48
261.669	564.86
261.899	565.21
262.128	564.88
262.357	564.08
262.586	563.99
262.815	564.08
263.044	562.14
263.273	564.05
263.502	563.65
263.731	564.12
263.96	562.59
264.189	560.57
264.418	558.97
264.646	558.19
264.875	555.79
265.104	552.32
265.333	551.34
265.562	551.28
265.791	548.28
266.02	546.1
266.249	545.05
266.477	545.66
266.706	544.99
266.935	543.59
267.164	542.05
267.393	543.14
267.621	543.05
267.85	542.41
268.079	542.9
268.307	541.83
268.536	540.9
268.765	539.99
268.993	539.1
269.222	539.68
269.451	539.77
269.679	540.03
269.908	538.83
270.137	539.41
270.365	539.63
270.594	540.26
270.822	540.94
271.051	541.17
271.279	540.99
271.508	540.77
271.736	541.85
271.965	542.75
272.193	542.37
272.422	543.43
272.65	544.55
272.879	543.46
273.107	542.75
273.336	541.54
273.564	541.06
273.792	540.3
274.021	539.9
274.249	538.15
274.477	536.12
274.706	535.94
274.934	533.92
275.162	531.94
275.391	531.86
275.619	529.3
275.847	528.17
276.075	528.46
276.304	528.06
276.532	526.05
276.76	525.5
276.988	524.32
277.216	522.79
277.445	522.15
277.673	520.95
277.901	520.86
278.129	521.37
278.357	520.95
278.585	520.06
278.813	520.03
279.041	519.15
279.269	518.19
279.497	518.92
279.725	518.77
279.954	517.97
280.182	517.66
280.41	516.57
280.637	515.23
280.865	514.03
281.093	512.61
281.321	511.99
281.549	511.99
281.777	510.94
282.005	510.21
282.233	509.19
282.461	508.54
282.689	508.57
282.916	508.06
283.144	508.3
283.372	509.01
283.6	508.32
283.828	507.54
284.055	507.37
284.283	506.57
284.511	505.65
284.739	504.97
284.966	505.41
285.194	504.01
285.422	502.77
285.649	501.23
285.877	499.88
286.105	500.5
286.332	499.61
286.56	498.86
286.788	499.92
287.015	499.65
287.243	499.63
287.47	498.83
287.698	498.19
287.925	497.85
288.153	498.41
288.381	498.01
288.608	496.52
288.836	495.97
289.063	495.81
289.29	494.63
289.518	493.88
289.745	493.32
289.973	491.79
290.2	492.23
290.428	491.9
290.655	490.9
290.882	490.41
291.11	489.61
291.337	489.59
291.564	489.06
291.792	488.26
292.019	488.3
292.246	488.17
292.473	488.94
292.701	488.65
292.928	488.25
293.155	487.99
293.382	487.39
293.61	487.94
293.837	487.66
294.064	485.81
294.291	484.48
294.518	483.88
294.745	482.23
294.972	481.54
295.2	479.19
295.427	479.23
295.654	478.55
295.881	477.95
296.108	476.79
296.335	475.57
296.562	475.65
296.789	475.54
297.016	474.21
297.243	474.1
297.47	473.21
297.697	475.01
297.924	472.92
298.151	472.14
298.378	471.94
298.604	471.83
298.831	470.72
299.058	471.28
299.285	470.7
299.512	469.74
299.739	469.06
299.966	467.94
300.192	465.43
300.419	465.65
300.646	464.95
300.873	464.65
301.099	463.92
301.326	463.55
301.553	462.68
301.78	463.43
302.006	463.86
302.233	464.79
302.46	464.83
302.686	465.52
302.913	465.79
303.14	465.79
303.366	465.35
303.593	464.99
303.819	464.39
304.046	463.15
304.272	462.15
304.499	461.39
304.725	459.88
304.952	459.61
305.179	459.41
305.405	459.1
305.631	458.57
305.858	459.03
306.084	458.99
306.311	459.26
306.537	459.75
306.764	459.68
306.99	459.86
307.216	460.12
307.443	459.28
307.669	459.03
307.895	457.77
308.122	457.63
308.348	457.05
308.574	457.15
308.801	456.81
309.027	457.28
309.253	456.12
309.479	455.75
309.706	455.06
309.932	455.37
310.158	454.52
310.384	454.61
310.61	455.03
310.837	453.97
311.063	453.26
311.289	453.06
311.515	452.37
311.741	453.52
311.967	453.61
312.193	454.26
312.419	454.74
312.645	455.26
312.871	454.74
313.097	453.83
313.323	454.86
313.549	455.39
313.775	455.81
314.001	455.86
314.227	455.12
314.453	455.28
314.679	455.45
314.905	455.59
315.131	456.15
315.357	457.46
315.583	457.55
315.809	455.66
316.034	455.52
316.26	455.1
316.486	455.41
316.712	456.52
316.938	455.83
317.163	456.06
317.389	456.52
317.615	456.5
317.841	455.43
318.066	456.35
318.292	457.65
318.518	458.92
318.743	459.41
318.969	460.06
319.195	461.03
319.42	461.92
319.646	462.25
319.872	462.43
320.097	463.59
320.323	466.45
320.548	467.5
320.774	470.34
320.999	469.79
321.225	471.57
321.45	472.9
321.676	473.45
321.901	475.61
322.127	476.59
322.352	478.21
322.578	479.01
322.803	479.52
323.029	481.54
323.254	481.86
323.479	484.23
323.705	486.01
323.93	486.9
324.155	488.81
324.381	490.08
324.606	491.21
324.831	492.79
325.057	494.01
325.282	495.19
325.507	497.23
325.732	500.32
325.958	503.32
326.183	505.23
326.408	508.61
326.633	510.65
326.858	513.54
327.084	518.01
327.309	521.32
327.534	524.88
327.759	529.01
327.984	531.46
328.209	533.46
328.434	534.94
328.659	538.1
328.884	540.06
329.109	542.35
329.334	544.97
329.559	547.85
329.784	550.41
330.009	552.83
330.234	554.55
330.459	558.45
330.684	562.79
330.909	567.15
331.134	570.88
331.359	575.72
331.584	580.79
331.809	585.41
332.034	588.95
332.259	593.08
332.483	598.63
332.708	604.21
332.933	608.15
333.158	611.63
333.383	616.95
333.607	622.54
333.832	626.68
334.057	630.52
334.282	634.99
334.506	640.08
334.731	645.12
334.956	650.7
335.18	655.26
335.405	661.08
335.63	665.59
335.854	670.48
336.079	674.41
336.303	681.74
336.528	688.01
336.753	693.97
336.977	701.17
337.202	707.74
337.426	712.79
337.651	720.17
337.875	726.05
338.1	734.23
338.324	740.79
338.549	748.95
338.773	755.41
338.997	764.1
339.222	772.21
339.446	778.14
339.671	784.52
339.895	791.19
340.119	799.25
340.344	807.81
340.568	815.54
340.792	824.15
341.017	831.81
341.241	840.01
341.465	846.81
341.689	853.57
341.914	862.21
342.138	870.85
342.362	880.1
342.586	886.79
342.811	893.25
343.035	900.92
343.259	908.92
343.483	916.46
343.707	925.34
343.931	935.55
344.155	945.12
344.38	954.86
344.604	963.77
344.828	973.39
345.052	982.7
345.276	992.5
345.5	1001.61
345.724	1010.34
345.948	1021.05
346.172	1030.14
346.396	1036.7
346.62	1048.25
346.844	1056.55
347.068	1066.14
347.292	1077.57
347.515	1088.65
347.739	1101.15
347.963	1111.3
348.187	1122.81
348.411	1132.74
348.635	1141.77
348.859	1153.34
349.082	1162.23
349.306	1172.1
349.53	1181.5
349.754	1190.48
349.977	1201.77
350.201	1210.97
350.425	1223.45
350.649	1233.95
350.872	1244.66
351.096	1256.97
351.32	1267.48
351.543	1279.65
351.767	1291.15
351.99	1304.15
352.214	1314.63
352.438	1324.7
352.661	1336.61
352.885	1347.01
353.108	1358.97
353.332	1370.74
353.555	1381.65
353.779	1393.92
354.002	1405.48
354.226	1419.12
354.449	1431.43
354.673	1445.1
354.896	1457.48
355.12	1467.77
355.343	1481.37
355.566	1494.01
355.79	1505.45
356.013	1517.23
356.237	1528.74
356.46	1540.19
356.683	1550.94
356.907	1564.06
357.13	1574.68
357.353	1587.45
357.576	1601.5
357.8	1612.26
358.023	1623.59
358.246	1637.17
358.469	1651.5
358.693	1666.37
358.916	1677.97
359.139	1690.15
359.362	1702.5
359.585	1715.99
359.808	1730.03
360.031	1741.17
360.255	1754.05
360.478	1767.74
360.701	1780.35
360.924	1793.83
361.147	1805.46
361.37	1817.46
361.593	1832.1
361.816	1845.23
362.039	1857.94
362.262	1870.01
362.485	1883.55
362.708	1898.19
362.931	1910.25
363.154	1926.21
363.377	1939.48
363.599	1954.12
363.822	1969.95
364.045	1984.57
364.268	1999.21
364.491	2014.83
364.714	2028.72
364.936	2043.05
365.159	2056.05
365.382	2074.23
365.605	2086.68
365.828	2103.46
366.05	2117.63
366.273	2133.34
366.496	2149.28
366.718	2166.41
366.941	2181.77
367.164	2197.52
367.386	2213.85
367.609	2230.79
367.832	2244.25
368.054	2258.12
368.277	2270.63
368.5	2289.12
368.722	2305.74
368.945	2320.52
369.167	2333.63
369.39	2348.79
369.612	2365.25
369.835	2381.39
370.057	2398.95
370.28	2414.83
370.502	2433.48
370.725	2449.5
370.947	2465.43
371.169	2481.15
371.392	2500.06
371.614	2515.5
371.837	2531.28
372.059	2546.97
372.281	2565.23
372.504	2578.35
372.726	2598.23
372.948	2614.88
373.171	2633.14
373.393	2648.08
373.615	2665.1
373.837	2682.01
374.06	2703.19
374.282	2723.86
374.504	2743.5
374.726	2762.46
374.948	2783.7
375.17	2798.99
375.393	2819.19
375.615	2834.59
375.837	2855.28
376.059	2875.68
376.281	2893.12
376.503	2911.66
376.725	2929.25
376.947	2949.34
377.169	2968.17
377.391	2989.45
377.613	3012.08
377.835	3029.37
378.057	3052.63
378.279	3073.74
378.501	3094.32
378.723	3117.5
378.945	3138.05
379.167	3160.12
379.389	3179.65
379.611	3199.25
379.833	3218.7
380.054	3239.34
380.276	3266.06
380.498	3288.43
380.72	3313.23
380.942	3337.15
381.163	3360.28
381.385	3386.39
381.607	3413.65
381.829	3439.48
382.05	3466.57
382.272	3492.41
382.494	3519.23
382.716	3544.94
382.937	3570.85
383.159	3593.05
383.381	3618.05
383.602	3641.66
383.824	3665.08
384.045	3685.41
384.267	3711.25
384.488	3736.66
384.71	3762.41
384.932	3785.39
385.153	3810.72
385.375	3837.12
385.596	3862.85
385.818	3890.17
386.039	3918.08
386.261	3947.35
386.482	3975.61
386.703	4001.12
386.925	4029.26
387.146	4056.06
387.368	4085.97
387.589	4115.81
387.81	4144.54
388.032	4176.63
388.253	4203.15
388.474	4230.06
388.696	4257.85
388.917	4287.45
389.138	4319.48
389.359	4346.55
389.581	4377.97
389.802	4410.63
390.023	4439.63
390.244	4468.54
390.465	4497.06
390.687	4528.59
390.908	4559.95
391.129	4590.3
391.35	4624.59
391.571	4652.5
391.792	4683.5
392.013	4713.55
392.234	4743.61
392.455	4771.79
392.677	4805.37
392.898	4836.28
393.119	4868.7
393.34	4901.74
393.561	4931.97
393.782	4961.55
394.003	4994.19
394.223	5029.15
394.444	5063.5
394.665	5095.01
394.886	5126.99
395.107	5159.37
395.328	5189.79
395.549	5221.45
395.77	5255.66
395.99	5288.74
396.211	5322.48
396.432	5358.59
396.653	5391.94
396.874	5421.74
397.094	5455.21
397.315	5488.54
397.536	5523.12
397.757	5559.61
397.977	5593.12
398.198	5623.9
398.419	5660.17
398.639	5691.35
398.86	5724.45
399.081	5758.03
399.301	5793.15
399.522	5827.61
399.742	5860.45
399.963	5890.19
400.184	5924.85
400.404	5958.17
400.625	5992.12
400.845	6025.95
401.066	6065.45
401.286	6100.06
401.507	6134.54
401.727	6167.26
401.948	6198.74
402.168	6231.5
402.388	6266.61
402.609	6297.48
402.829	6333.97
403.05	6368.05
403.27	6402.37
403.49	6434.83
403.711	6465.88
403.931	6499.83
404.151	6535.54
404.372	6574.32
404.592	6614.65
404.812	6651.48
405.032	6691.03
405.253	6724.32
405.473	6761.59
405.693	6796.88
405.913	6830.61
406.133	6864.54
406.353	6902.08
406.574	6934.85
406.794	6967.94
407.014	7003.83
407.234	7037.01
407.454	7070.01
407.674	7106.25
407.894	7137.65
408.114	7175.19
408.334	7211.12
408.554	7249.94
408.774	7281.79
408.994	7325.79
409.214	7363.05
409.434	7397.68
409.654	7433.41
409.874	7471.65
410.094	7509.48
410.314	7550.68
410.534	7583.66
410.754	7624.52
410.974	7662.17
411.193	7702.61
411.413	7736.57
411.633	7772.41
411.853	7814.48
412.073	7854.05
412.292	7894.25
412.512	7931.15
412.732	7966.06
412.952	8007.41
413.171	8043.46
413.391	8081.37
413.611	8122.9
413.831	8165.52
414.05	8209.32
414.27	8248.39
414.489	8293.32
414.709	8336.52
414.929	8380.52
415.148	8425.86
415.368	8465.85
415.587	8512.74
415.807	8557.85
416.026	8596.88
416.246	8639.21
416.465	8680.55
416.685	8720.57
416.904	8763.37
417.124	8801.08
417.343	8842.54
417.563	8886.34
417.782	8931.66
418.002	8969.3
418.221	9014.5
418.44	9064.52
418.66	9103.97
418.879	9150.15
419.098	9198.32
419.318	9237.86
419.537	9282.74
419.756	9329.61
419.976	9370.88
420.195	9409.45
420.414	9456.57
420.633	9501.94
420.853	9545.45
421.072	9590.39
421.291	9632.54
421.51	9676.12
421.729	9725.43
421.948	9765.74
422.168	9813.48
422.387	9858.52
422.606	9904.52
422.825	9943.34
423.044	9987.21
423.263	10026.95
423.482	10078.94
423.701	10128.61
423.92	10171.35
424.139	10215.37
424.358	10263.88
424.577	10305.41
424.796	10357.25
425.015	10410.48
425.234	10460.92
425.453	10504.72
425.672	10554.95
425.891	10597.41
426.11	10641.15
426.328	10686.19
426.547	10731.12
426.766	10780.15
426.985	10823.7
427.204	10865.81
427.422	10915.1
427.641	10962.75
427.86	11011.97
428.079	11060.83
428.297	11107.43
428.516	11153.23
428.735	11204.75
428.954	11253.35
429.172	11302.63
429.391	11353.26
429.61	11402.1
429.828	11446.34
430.047	11491.86
430.265	11535.23
430.484	11574.03
430.703	11621.43
430.921	11666.03
431.14	11711.66
431.358	11752.65
431.577	11798.21
431.795	11846.43
432.014	11898.66
432.232	11948.72
432.451	11999.3
432.669	12052.37
432.887	12105.06
433.106	12155.83
433.324	12208.25
433.543	12256.06
433.761	12312.94
433.979	12359.66
434.198	12404.46
434.416	12445.85
434.634	12484.23
434.853	12526.79
435.071	12574.5
435.289	12621.99
435.507	12668.1
435.726	12711.74
435.944	12759.63
436.162	12802.06
436.38	12852.3
436.598	12898.86
436.817	12944.1
437.035	12996.37
437.253	13045.52
437.471	13095.06
437.689	13143.3
437.907	13183.63
438.125	13231.59
438.343	13277.9
438.561	13325.9
438.78	13374.94
438.998	13420.54
439.216	13469.41
439.434	13512.97
439.652	13558.12
439.869	13600.39
440.087	13640.25
440.305	13693.63
440.523	13738.92
440.741	13784.94
440.959	13831.74
441.177	13877.77
441.395	13927.45
441.613	13978.9
441.831	14030.12
442.048	14078.7
442.266	14125.54
442.484	14180.65
442.702	14227.72
442.919	14279.45
443.137	14329.65
443.355	14381.85
443.573	14428.83
443.79	14480.39
444.008	14527.99
444.226	14575.19
444.443	14623.88
444.661	14673.26
444.879	14722.06
445.096	14774.32
445.314	14826.08
445.532	14875.34
445.749	14919.77
445.967	14969.06
446.184	15007.85
446.402	15053.45
446.619	15102.23
446.837	15154.61
447.054	15203.39
447.272	15251.52
447.489	15290.15
447.707	15329.63
447.924	15376.7
448.141	15426.63
448.359	15468.14
448.576	15524.79
448.794	15572.26
449.011	15625.34
449.228	15672.59
449.446	15715.21
449.663	15760.41
449.88	15814.95
450.098	15864.1
450.315	15910.15
450.532	15957.75
450.749	16008.32
450.967	16055.5
451.184	16102.94
451.401	16146.28
451.618	16193.12
451.835	16243.68
452.052	16288.37
452.27	16331.48
452.487	16381.59
452.704	16427.03
452.921	16471.19
453.138	16519.99
453.355	16563.92
453.572	16612.01
453.789	16656.46
454.006	16704.5
454.223	16753.03
454.44	16804.1
454.657	16852.85
454.874	16899.95
455.091	16947.12
455.308	16993.17
455.525	17036.9
455.742	17090.65
455.959	17140.25
456.176	17186.66
456.393	17238.72
456.609	17289.55
456.826	17337.28
457.043	17382.65
457.26	17428.85
457.477	17476.17
457.693	17525.68
457.91	17573.14
458.127	17613.52
458.344	17655.99
458.56	17705.17
458.777	17739.3
458.994	17775.52
459.21	17807.3
459.427	17840.74
459.644	17875.68
459.86	17907.45
460.077	17941.81
460.294	17974.7
460.51	18006.66
460.727	18045.03
460.943	18078.05
461.16	18111.46
461.376	18146.34
461.593	18183.14
461.809	18234.65
462.026	18277.17
462.242	18318.05
462.459	18358.17
462.675	18400.72
462.892	18440.01
463.108	18472.05
463.324	18510.21
463.541	18553.34
463.757	18600.01
463.974	18648.5
464.19	18684.75
464.406	18724.52
464.623	18779.5
464.839	18833.57
465.055	18876.59
465.271	18929.68
465.488	18984.08
465.704	19033.68
465.92	19083.99
466.136	19131.01
466.353	19183.01
466.569	19238.77
466.785	19294.63
467.001	19342.01
467.217	19392.37
467.433	19442.05
467.649	19494.9
467.865	19547.7
468.082	19604.52
468.298	19666.9
468.514	19725.74
468.73	19788.97
468.946	19848.86
469.162	19914.72
469.378	19980.59
469.594	20037.01
469.81	20112.1
470.026	20179.77
470.242	20248.17
470.457	20311.66
470.673	20377.19
470.889	20447.46
471.105	20510.75
471.321	20580.7
471.537	20640.97
471.753	20700.63
471.968	20777.95
472.184	20846.81
472.4	20922.7
472.616	20994.21
472.832	21071.08
473.047	21143.32
473.263	21214.66
473.479	21290.72
473.694	21360.54
473.91	21442.52
474.126	21526.65
474.341	21592.1
474.557	21665.66
474.773	21732.46
474.988	21793.52
475.204	21863.86
475.42	21937.83
475.635	22009.63
475.851	22076.7
476.066	22142.01
476.282	22200.03
476.497	22261.61
476.713	22331.05
476.928	22398.3
477.144	22464.21
477.359	22538.1
477.575	22608.66
477.79	22667.05
478.005	22730.28
478.221	22785.97
478.436	22851.14
478.651	22916.19
478.867	22978.28
479.082	23033.81
479.297	23091.35
479.513	23146.94
479.728	23202.52
479.943	23247.95
480.159	23302.97
480.374	23356.9
480.589	23419.88
480.804	23475.48
481.019	23526.41
481.235	23578.14
481.45	23636.28
481.665	23688.5
481.88	23736.88
482.095	23786.37
482.31	23845.03
482.525	23901.99
482.741	23950.65
482.956	23998.43
483.171	24048.03
483.386	24093.79
483.601	24145.57
483.816	24185.06
484.031	24223.05
484.246	24269.01
484.461	24310.3
484.676	24347.68
484.891	24390.54
485.105	24424.01
485.32	24464.54
485.535	24494.54
485.75	24537.34
485.965	24567.17
486.18	24605.88
486.395	24656.28
486.609	24697.79
486.824	24744.9
487.039	24792.03
487.254	24830.41
487.469	24876.81
487.683	24915.52
487.898	24958.61
488.113	24992.72
488.327	25039.95
488.542	25085.21
488.757	25122.48
488.972	25165.15
489.186	25199.88
489.401	25227.05
489.615	25255.57
489.83	25292.26
490.045	25327.55
490.259	25363.26
490.474	25396.54
490.688	25426.72
490.903	25463.32
491.117	25481.41
491.332	25505.83
491.546	25535.39
491.761	25564.48
491.975	25607.5
492.19	25635.55
492.404	25663.65
492.618	25703.97
492.833	25740.25
493.047	25774.65
493.262	25789.15
493.476	25830.66
493.69	25857.3
493.905	25890.75
494.119	25934.88
494.333	25951.46
494.547	25984.43
494.762	26021.48
494.976	26042.15
495.19	26072.81
495.404	26087.43
495.619	26127.43
495.833	26154.74
496.047	26188.55
496.261	26208.17
496.475	26212.97
496.689	26222.43
496.903	26225.3
497.117	26224.1
497.332	26217.97
497.546	26211.26
497.76	26209.7
497.974	26189.77
498.188	26170.37
498.402	26156.81
498.616	26145.55
498.83	26139.81
499.044	26134.99
499.258	26132.86
499.472	26127.35
499.685	26130.08
499.899	26141.08
500.113	26155.23
500.327	26169.15
500.541	26183.92
500.755	26192.46
500.969	26213.83
501.183	26235.61
501.396	26257.68
501.61	26275.86
501.824	26298.7
502.038	26329.23
502.251	26348.95
502.465	26367.28
502.679	26389.46
502.892	26410.35
503.106	26430.83
503.32	26446.14
503.533	26460.59
503.747	26480.5
503.961	26499.5
504.174	26522.99
504.388	26547.68
504.602	26572.03
504.815	26612.83
505.029	26658.3
505.242	26695.72
505.456	26742.68
505.669	26785.59
505.883	26830.23
506.096	26882.59
506.31	26939.94
506.523	26996.61
506.736	27052.52
506.95	27114.12
507.163	27159.92
507.377	27210.23
507.59	27270.41
507.803	27330.72
508.017	27393.88
508.23	27464.23
508.443	27530.08
508.657	27589.14
508.87	27651.63
509.083	27708.06
509.296	27775.15
509.51	27857.66
509.723	27930.12
509.936	28010.97
510.149	28091.17
510.363	28171.06
510.576	28246.15
510.789	28334.32
511.002	28425.39
511.215	28525.19
511.428	28625.03
511.641	28717.23
511.854	28805.74
512.067	28909.94
512.28	29009.79
512.493	29108.46
512.707	29213.54
512.92	29325.65
513.132	29428.28
513.345	29532.17
513.558	29631.37
513.771	29737.88
513.984	29845.3
514.197	29960.5
514.41	30073.46
514.623	30179.66
514.836	30297.74
515.049	30401.32
515.262	30502.26
515.474	30602.77
515.687	30704.63
515.9	30804.68
516.113	30895.99
516.325	30997.12
516.538	31077.72
516.751	31162.26
516.964	31249.1
517.176	31322.75
517.389	31411.08
517.602	31490.54
517.814	31572.95
518.027	31655.81
518.24	31735.72
518.452	31820.81
518.665	31886.88
518.877	31961.28
519.09	32033.88
519.303	32105.65
519.515	32177.99
519.728	32241.66
519.94	32304.95
520.153	32369.48
520.365	32434.9
520.578	32501.59
520.79	32568.37
521.002	32647.26
521.215	32714.5
521.427	32773.06
521.64	32829.14
521.852	32892.48
522.064	32952.79
522.277	33018.25
522.489	33070.08
522.701	33125.25
522.914	33177.95
523.126	33224.54
523.338	33258.74
523.551	33309.59
523.763	33362.08
523.975	33412.88
524.187	33453.9
524.399	33502.83
524.612	33541.06
524.824	33588.68
525.036	33630.52
525.248	33670.46
525.46	33706.7
525.672	33756.37
525.884	33783.94
526.096	33815.19
526.308	33846.52
526.521	33873.57
526.733	33902.41
526.945	33926.86
527.157	33954.95
527.369	33988.45
527.581	34022.5
527.793	34044.45
528.004	34067.06
528.216	34100.97
528.428	34127.72
528.64	34164.59
528.852	34194.55
529.064	34213.86
529.276	34252.5
529.488	34281.03
529.699	34298.48
529.911	34318.83
530.123	34355.32
530.335	34381.35
530.547	34408.46
530.758	34437.06
530.97	34455.46
531.182	34488.65
531.393	34530.5
531.605	34562.1
531.817	34597.88
532.029	34636.06
532.24	34673.25
532.452	34692.85
532.663	34712.34
532.875	34735.39
533.087	34761.39
533.298	34795.97
533.51	34826.55
533.721	34842.03
533.933	34857.77
534.144	34874.41
534.356	34885.68
534.567	34894.25
534.779	34915.57
534.99	34936.68
535.202	34956.97
535.413	34977.03
535.624	34988.39
535.836	34994.75
536.047	35006.3
536.259	35023.08
536.47	35024.97
536.681	35037.06
536.893	35045.17
537.104	35061.54
537.315	35077.55
537.526	35086.95
537.738	35108.92
537.949	35127.65
538.16	35142.01
538.371	35166.39
538.582	35187.72
538.794	35209.34
539.005	35230.21
539.216	35258.54
539.427	35287.75
539.638	35308.54
539.849	35322.9
540.06	35326.75
540.272	35333.01
540.483	35341.63
540.694	35346.59
540.905	35350.85
541.116	35367.66
541.327	35389.74
541.538	35396.99
541.749	35391.43
541.96	35388.75
542.17	35403.83
542.381	35402.5
542.592	35412.68
542.803	35420.94
543.014	35434.3
543.225	35438.59
543.436	35444.88
543.647	35445.35
543.857	35456.68
544.068	35467.41
544.279	35483.61
544.49	35485.12
544.701	35500.03
544.911	35506.68
545.122	35525.37
545.333	35532.03
545.543	35543.23
545.754	35548.61
545.965	35556.65
546.175	35560.41
546.386	35567.25
546.597	35576.15
546.807	35592.86
547.018	35606.23
547.229	35613.68
547.439	35606.92
547.65	35615.66
547.86	35629.55
548.071	35636.61
548.281	35641.48
548.492	35645.32
548.702	35656.17
548.913	35658.15
549.123	35670.54
549.333	35664.32
549.544	35665.77
549.754	35681.65
549.965	35689.48
550.175	35699.83
550.385	35708.83
550.596	35727.92
550.806	35744.74
551.016	35747.57
551.227	35755.75
551.437	35756.85
551.647	35769.19
551.857	35785.52
552.068	35789.54
552.278	35787.79
552.488	35788.79
552.698	35792.74
552.908	35785.59
553.119	35778.21
553.329	35781.03
553.539	35785.61
553.749	35773.59
553.959	35774.3
554.169	35770.21
554.379	35770.57
554.589	35775.88
554.799	35772.19
555.009	35769.32
555.219	35764.94
555.429	35766.39
555.639	35767.83
555.849	35764.25
556.059	35770.15
556.269	35769.61
556.479	35759.32
556.689	35754.35
556.899	35749.65
557.109	35745.77
557.319	35754.61
557.528	35757.08
557.738	35752.45
557.948	35739.55
558.158	35730.77
558.368	35723.45
558.577	35709.23
558.787	35712.99
558.997	35708.37
559.207	35703.26
559.416	35684.65
559.626	35664.52
559.836	35652.08
560.045	35640.32
560.255	35655.54
560.465	35654.61
560.674	35656.45
560.884	35660.41
561.093	35644.7
561.303	35629.46
561.512	35614.68
561.722	35613.21
561.932	35613.39
562.141	35602.61
562.351	35589.25
562.56	35561.34
562.769	35555.01
562.979	35539.59
563.188	35537.21
563.398	35529.99
563.607	35532.06
563.817	35532.06
564.026	35536.59
564.235	35517.1
564.445	35509.74
564.654	35513.05
564.863	35508.26
565.073	35489.32
565.282	35482.86
565.491	35463.06
565.7	35460.25
565.91	35441.97
566.119	35423.34
566.328	35387.12
566.537	35369.77
566.746	35353.66
566.956	35343.23
567.165	35338.68
567.374	35340.41
567.583	35329.95
567.792	35316.88
568.001	35301.72
568.21	35278.05
568.419	35256.3
568.628	35247.9
568.837	35223.06
569.046	35199.65
569.255	35171.34
569.464	35119.46
569.673	35083.08
569.882	35043.39
570.091	35018.52
570.3	34995.75
570.509	34977.99
570.718	34955.5
570.927	34940.05
571.135	34936.14
571.344	34935.5
571.553	34916.61
571.762	34928.79
571.971	34918.03
572.18	34913.28
572.388	34893.5
572.597	34863.43
572.806	34839.63
573.014	34831.83
573.223	34807.06
573.432	34781.43
573.641	34747.26
573.849	34721.28
574.058	34685.37
574.266	34660.12
574.475	34635.9
574.684	34625.3
574.892	34613.65
575.101	34607.17
575.309	34577.43
575.518	34563.86
575.726	34540.7
575.935	34520.23
576.143	34499.57
576.352	34486.9
576.56	34468.83
576.769	34452.34
576.977	34422.23
577.186	34400.37
577.394	34373.35
577.602	34353.68
577.811	34331.01
578.019	34316.74
578.228	34298.63
578.436	34285.37
578.644	34259.39
578.852	34233.61
579.061	34205.52
579.269	34182.3
579.477	34158.7
579.685	34137.34
579.894	34123.14
580.102	34102.37
580.31	34080.57
580.518	34052.21
580.726	34028.52
580.935	34007.45
581.143	33983.32
581.351	33960.75
581.559	33940.03
581.767	33912.83
581.975	33893.41
582.183	33860.66
582.391	33831.95
582.599	33805.99
582.807	33790.55
583.015	33762.03
583.223	33735.52
583.431	33715.59
583.639	33689.77
583.847	33659.5
584.055	33633.06
584.263	33607.5
584.471	33587.08
584.678	33559.41
584.886	33541.26
585.094	33515.14
585.302	33491.54
585.51	33469.43
585.718	33442.12
585.925	33425.35
586.133	33404.66
586.341	33388.61
586.549	33365.41
586.756	33333.65
586.964	33307.55
587.172	33275.77
587.379	33245.68
587.587	33217.52
587.795	33182.66
588.002	33154.37
588.21	33126.65
588.417	33095.79
588.625	33062.34
588.833	33027.26
589.04	33006.55
589.248	32984.34
589.455	32960.57
589.663	32933.68
589.87	32911.3
590.078	32897.9
590.285	32875.43
590.492	32843.83
590.7	32830.99
590.907	32804.92
591.115	32781.81
591.322	32749.35
591.529	32722.41
591.737	32691.15
591.944	32662.77
592.151	32620.05
592.359	32591.05
592.566	32562.63
592.773	32531.95
592.981	32493.21
593.188	32462.01
593.395	32435.41
593.602	32405.32
593.809	32375.19
594.017	32341.15
594.224	32312.88
594.431	32289.45
594.638	32247.95
594.845	32214.45
595.052	32187.08
595.259	32159.83
595.466	32129.79
595.673	32097.19
595.88	32080.26
596.088	32055.52
596.295	32033.94
596.502	32009.34
596.709	31978.54
596.915	31966.79
597.122	31939.03
597.329	31908.46
597.536	31877.65
597.743	31854.05
597.95	31831.97
598.157	31800.85
598.364	31756.21
598.571	31710.26
598.777	31650.34
598.984	31605.41
599.191	31544.55
599.398	31486.79
599.605	31429.26
599.811	31380.39
600.018	31327.35
600.225	31269.85
600.431	31205.1
600.638	31159.3
600.845	31119.99
601.052	31089.03
601.258	31041.74
601.465	30997.97
601.671	30946.46
601.878	30887.92
602.085	30798.45
602.291	30697.7
602.498	30574.54
602.704	30436.28
602.911	30280.06
603.117	30094.77
603.324	29890.63
603.53	29689.66
603.737	29453.74
603.943	29222.83
604.15	28975.75
604.356	28726.14
604.562	28468.83
604.769	28210.75
604.975	27953.75
605.181	27692.37
605.388	27437.92
605.594	27177.66
605.8	26908.59
606.007	26648.3
606.213	26375.08
606.419	26108.7
606.625	25842.28
606.832	25576.72
607.038	25312.83
607.244	25048.61
607.45	24778.97
607.656	24510.57
607.863	24254.99
608.069	23988.17
608.275	23720.81
608.481	23454.28
608.687	23175.74
608.893	22899.79
609.099	22628.52
609.305	22350.68
609.511	22080.32
609.717	21801.21
609.923	21515.7
610.129	21224.97
610.335	20937.39
610.541	20648.46
610.747	20361.05
610.953	20078.41
611.159	19792.25
611.365	19494.35
611.571	19190.57
611.776	18877.72
611.982	18572.19
612.188	18269.39
612.394	17959.1
612.6	17649.57
612.806	17343.59
613.011	17025.15
613.217	16710.26
613.423	16389.61
613.628	16080.72
613.834	15786.55
614.04	15494.52
614.246	15207.23
614.451	14922.85
614.657	14645.08
614.862	14378.77
615.068	14105.12
615.274	13844.35
615.479	13591.88
615.685	13350.28
615.89	13104.34
616.096	12861.1
616.301	12616.88
616.507	12373.92
616.712	12122.54
616.918	11875.26
617.123	11618.45
617.329	11362.66
617.534	11107.39
617.74	10846.15
617.945	10582.26
618.15	10303.15
618.356	9862.43
618.561	9068.06
618.766	8107.54
618.972	7121.94
619.177	6157.99
619.382	5219.86
619.588	4309.72
619.793	3765.08
619.998	3125.61
620.203	2360.5
620.408	1437.53
620.614	536.73
