Data from test1_MAYP1115451__31__10-17-19-778.txt Node

Date: Wed Jun 12 10:17:19 MDT 2024
User: Modes Lab
Spectrometer: MAYP111545
Trigger mode: 0
Integration Time (sec): 8.000000E-3
Scans to average: 5
Electric dark correction enabled: true
Nonlinearity correction enabled: false
Boxcar width: 5
XAxis mode: Wavelengths
Number of Pixels in Spectrum: 2068
>>>>>Begin Spectral Data<<<<<
165.214	164.2
165.449	163.44
165.683	172.95
165.918	180.9
166.152	187.18
166.387	192.66
166.621	124.61
166.856	162.83
167.09	181.21
167.325	204.9
167.559	221.25
167.794	234.79
168.028	242.74
168.263	243.57
168.497	243.99
168.732	244.85
168.966	245.26
169.2	246.28
169.435	248.35
169.669	249.08
169.903	250.95
170.138	252.46
170.372	253.72
170.606	254.97
170.841	255.66
171.075	257.9
171.309	259.72
171.544	261.5
171.778	263.48
172.012	265.74
172.246	267.34
172.48	268.57
172.715	269.92
172.949	272.48
173.183	274.23
173.417	276.46
173.651	278.43
173.885	280.03
174.119	280.5
174.354	280.77
174.588	281.1
174.822	282.17
175.056	282.34
175.29	282.92
175.524	282.66
175.758	282.83
175.992	283.14
176.226	282.25
176.46	282.05
176.694	283.52
176.928	285.35
177.162	285.39
177.396	286.17
177.63	287.1
177.864	287.45
178.097	288.46
178.331	289.66
178.565	290.01
178.799	290.59
179.033	291.48
179.267	291.1
179.5	290.92
179.734	292.52
179.968	293.19
180.202	293.21
180.436	295.14
180.669	295.72
180.903	296.21
181.137	297.28
181.371	298.65
181.604	299.15
181.838	300.9
182.072	302.61
182.305	303.41
182.539	304.66
182.772	306.55
183.006	307.01
183.24	308.55
183.473	312.12
183.707	313.23
183.94	314.46
184.174	316.03
184.408	317.03
184.641	318.26
184.875	319.5
185.108	321.08
185.342	322.03
185.575	322.65
185.808	323.61
186.042	323.72
186.275	324.86
186.509	325.1
186.742	325.43
186.976	326.9
187.209	327.99
187.442	329.21
187.676	329.66
187.909	330.79
188.142	332.57
188.376	333.57
188.609	334.14
188.842	336.06
189.076	338.21
189.309	340.3
189.542	341.7
189.775	343.05
190.009	344.99
190.242	347.35
190.475	348.83
190.708	351.15
190.941	353.66
191.174	355.08
191.408	356.08
191.641	358.3
191.874	359.86
192.107	361.37
192.34	363.57
192.573	365.12
192.806	367.61
193.039	369.39
193.272	370.7
193.505	372.46
193.738	374.99
193.971	378.25
194.204	379.23
194.437	381.26
194.67	383.32
194.903	385.35
195.136	386.54
195.369	387.59
195.602	390.39
195.835	391.68
196.068	393.23
196.301	393.79
196.533	394.72
196.766	396.46
196.999	398.25
197.232	400.28
197.465	401.32
197.698	403.1
197.93	406.06
198.163	407.54
198.396	410.63
198.629	412.57
198.861	416.1
199.094	419.52
199.327	422.48
199.559	424.35
199.792	426.85
200.025	428.83
200.257	431.86
200.49	432.21
200.723	433.55
200.955	435.41
201.188	437.48
201.42	439.05
201.653	439.54
201.886	441.81
202.118	443.95
202.351	445.46
202.583	447.59
202.816	449.35
203.048	452.95
203.281	456.41
203.513	457.68
203.745	460.55
203.978	463.3
204.21	466.19
204.443	468.66
204.675	470.21
204.907	473.99
205.14	476.66
205.372	479.21
205.605	481.41
205.837	483.85
206.069	486.66
206.302	488.48
206.534	489.74
206.766	491.94
206.998	493.79
207.231	496.55
207.463	497.03
207.695	499.41
207.927	501.46
208.159	503.57
208.392	504.3
208.624	507.05
208.856	508.34
209.088	510.26
209.32	512.48
209.552	513.55
209.784	516.72
210.017	519.85
210.249	523.05
210.481	524.39
210.713	525.7
210.945	529.5
211.177	531.35
211.409	533.77
211.641	536.54
211.873	537.59
212.105	539.32
212.337	540.72
212.569	541.59
212.801	542.94
213.033	546.12
213.264	548.23
213.496	549.14
213.728	550.45
213.96	553.12
214.192	553.7
214.424	555.81
214.656	558.88
214.887	560.75
215.119	563.77
215.351	564.88
215.583	565.14
215.815	566.48
216.046	568.23
216.278	568.37
216.51	568.37
216.741	570.65
216.973	572.97
217.205	573.48
217.436	575.41
217.668	578.23
217.9	579.21
218.131	580.99
218.363	583.3
218.595	585.45
218.826	588.12
219.058	589.63
219.289	591.05
219.521	591.48
219.752	593.63
219.984	594.57
220.215	592.97
220.447	593.19
220.678	593.9
220.91	594.52
221.141	593.88
221.373	596.25
221.604	597.99
221.836	599.61
222.067	601.39
222.298	602.63
222.53	603.34
222.761	604.05
222.993	607.54
223.224	608.06
223.455	609.59
223.686	611.43
223.918	611.08
224.149	612.55
224.38	612.37
224.612	612.14
224.843	611.57
225.074	612.79
225.305	613.86
225.536	613.26
225.768	615.08
225.999	615.32
226.23	614.94
226.461	616.19
226.692	616.15
226.923	616.99
227.155	618.14
227.386	619.95
227.617	619.55
227.848	620.48
228.079	622.1
228.31	622.14
228.541	620.81
228.772	622.72
229.003	621.72
229.234	621.12
229.465	622.19
229.696	621.63
229.927	620.74
230.158	620.48
230.389	620.94
230.62	620.15
230.85	620.92
231.081	621.77
231.312	620.37
231.543	621.83
231.774	622.95
232.005	621.72
232.236	621.35
232.466	620.83
232.697	620.83
232.928	620.21
233.159	619.59
233.389	618.99
233.62	618.85
233.851	618.85
234.082	617.57
234.312	616.34
234.543	616.34
234.774	616.83
235.004	618.45
235.235	619.63
235.466	619.25
235.696	619.15
235.927	618.19
236.157	619.21
236.388	619.34
236.618	619.83
236.849	620.01
237.08	620.5
237.31	621.61
237.541	620.17
237.771	618.7
238.002	618.79
238.232	617.48
238.463	616.61
238.693	615.68
238.923	615.25
239.154	614.95
239.384	615.65
239.615	614.26
239.845	612.66
240.075	612.39
240.306	613.41
240.536	611.9
240.766	612.25
240.997	613.19
241.227	612.74
241.457	612.72
241.687	613.26
241.918	612.7
242.148	613.66
242.378	613.99
242.608	614.34
242.839	612.43
243.069	613.83
243.299	613.26
243.529	614.03
243.759	613.46
243.989	613.48
244.22	611.63
244.45	612.14
244.68	611.45
244.91	610.1
245.14	609.75
245.37	608.99
245.6	607.83
245.83	607.85
246.06	606.46
246.29	606.06
246.52	605.1
246.75	604.52
246.98	601.9
247.21	601.26
247.44	601.48
247.67	599.46
247.9	599.94
248.13	599.81
248.359	599.95
248.589	598.45
248.819	597.41
249.049	596.72
249.279	596.28
249.509	595.99
249.738	595.1
249.968	594.59
250.198	594.75
250.428	593.17
250.657	592.26
250.887	590.81
251.117	590.03
251.347	589.32
251.576	589.3
251.806	588.63
252.036	587.86
252.265	587.72
252.495	586.46
252.725	586.28
252.954	586.65
253.184	584.46
253.413	584.23
253.643	584.85
253.873	584.34
254.102	582.68
254.332	582.99
254.561	582.9
254.791	581.46
255.02	581.74
255.25	580.88
255.479	580.14
255.708	580.32
255.938	578.95
256.167	577.1
256.397	577.65
256.626	576.46
256.856	575.39
257.085	575.37
257.314	575.34
257.544	575.25
257.773	574.94
258.002	575.21
258.232	575.06
258.461	575.1
258.69	575.63
258.919	574.12
259.149	575.59
259.378	575.1
259.607	574.88
259.836	573.35
260.065	571.41
260.295	570.25
260.524	569.41
260.753	568.95
260.982	568.34
261.211	568.12
261.44	567.05
261.669	564.83
261.899	563.61
262.128	561.72
262.357	561.83
262.586	562.81
262.815	561.79
263.044	560.54
263.273	563.15
263.502	562.61
263.731	561.88
263.96	562.06
264.189	561.59
264.418	561.59
264.646	561.54
264.875	560.7
265.104	558.66
265.333	558.86
265.562	558.75
265.791	553.74
266.02	551.92
266.249	549.63
266.477	547.32
266.706	547.05
266.935	545.28
267.164	544.81
267.393	543.5
267.621	542.32
267.85	540.57
268.079	540.41
268.307	540.52
268.536	539.77
268.765	540.34
268.993	541.12
269.222	541.03
269.451	540.21
269.679	539.25
269.908	540.21
270.137	539.17
270.365	539.37
270.594	537.77
270.822	537.9
271.051	538.63
271.279	538.57
271.508	537.5
271.736	537.3
271.965	538.94
272.193	539.52
272.422	538.63
272.65	539.97
272.879	539.68
273.107	538.85
273.336	538.41
273.564	537.54
273.792	535.59
274.021	535.46
274.249	534.1
274.477	531.32
274.706	528.83
274.934	526.54
275.162	524.12
275.391	523.86
275.619	523.17
275.847	522.25
276.075	521.43
276.304	520.92
276.532	520.19
276.76	518.79
276.988	519.19
277.216	520.01
277.445	520.28
277.673	519.81
277.901	517.75
278.129	517.68
278.357	516.34
278.585	515.57
278.813	515.95
279.041	514.92
279.269	515.32
279.497	514.45
279.725	512.79
279.954	511.85
280.182	512.12
280.41	512.23
280.637	513.12
280.865	512.74
281.093	511.74
281.321	511.48
281.549	512.05
281.777	511.75
282.005	510.25
282.233	509.83
282.461	509.92
282.689	508.77
282.916	509.21
283.144	507.06
283.372	506.28
283.6	507.39
283.828	506.06
284.055	505.48
284.283	504.72
284.511	505.17
284.739	505.25
284.966	505.46
285.194	505.66
285.422	503.75
285.649	502.92
285.877	502.17
286.105	501.46
286.332	501.41
286.56	500.79
286.788	500.26
287.015	500.12
287.243	499.37
287.47	497.75
287.698	496.95
287.925	497.32
288.153	497.05
288.381	496.9
288.608	495.5
288.836	494.45
289.063	493.61
289.29	493.25
289.518	493.35
289.745	492.19
289.973	491.92
290.2	491.72
290.428	490.3
290.655	489.66
290.882	489.99
291.11	489.68
291.337	489.01
291.564	487.9
291.792	486.83
292.019	485.66
292.246	484.65
292.473	483.95
292.701	482.68
292.928	482.77
293.155	482.66
293.382	480.9
293.61	480.74
293.837	479.48
294.064	479.52
294.291	478.85
294.518	478.46
294.745	477.48
294.972	476.57
295.2	475.32
295.427	474.88
295.654	474.01
295.881	473.83
296.108	472.59
296.335	473.14
296.562	472.48
296.789	471.94
297.016	471.23
297.243	471.65
297.47	471.68
297.697	472.37
297.924	472.17
298.151	471.14
298.378	471.55
298.604	470.9
298.831	470.15
299.058	470.1
299.285	469.43
299.512	467.94
299.739	468.3
299.966	467.23
300.192	466.81
300.419	464.85
300.646	464.97
300.873	463.77
301.099	463.5
301.326	462.52
301.553	460.88
301.78	460.95
302.006	460.95
302.233	460.57
302.46	460.74
302.686	459.65
302.913	460.3
303.14	459.45
303.366	459.34
303.593	459.26
303.819	459.37
304.046	459.41
304.272	458.7
304.499	458.1
304.725	457.32
304.952	455.92
305.179	455.68
305.405	455.79
305.631	455.9
305.858	455.66
306.084	455.74
306.311	455.48
306.537	455.17
306.764	454.97
306.99	454.63
307.216	455.43
307.443	455.61
307.669	454.9
307.895	454.34
308.122	454.79
308.348	454.94
308.574	454.28
308.801	454.32
309.027	455.23
309.253	455.99
309.479	456.55
309.706	454.52
309.932	454.15
310.158	455.54
310.384	455.43
310.61	454.65
310.837	453.97
311.063	454.72
311.289	453.15
311.515	452.68
311.741	452.08
311.967	452.05
312.193	452.83
312.419	454.23
312.645	452.63
312.871	452.35
313.097	452.63
313.323	452.45
313.549	452.14
313.775	453.54
314.001	452.9
314.227	452.43
314.453	453.08
314.679	453.46
314.905	452.63
315.131	454.14
315.357	454.08
315.583	453.5
315.809	454.28
316.034	454.21
316.26	454.66
316.486	456.26
316.712	456.25
316.938	455.54
317.163	454.68
317.389	455.12
317.615	456.35
317.841	456.54
318.066	457.17
318.292	457.7
318.518	458.32
318.743	459.1
318.969	458.72
319.195	460.26
319.42	460.97
319.646	462.75
319.872	463.46
320.097	463.5
320.323	464.92
320.548	466.1
320.774	467.81
320.999	468.45
321.225	468.28
321.45	470.06
321.676	471.25
321.901	472.25
322.127	472.81
322.352	474.85
322.578	475.17
322.803	476.41
323.029	477.34
323.254	477.92
323.479	479.08
323.705	481.79
323.93	481.88
324.155	484.28
324.381	487.14
324.606	489.77
324.831	491.7
325.057	494.95
325.282	497.35
325.507	498.83
325.732	500.43
325.958	503.17
326.183	504.65
326.408	509.15
326.633	510.68
326.858	512.48
327.084	514.23
327.309	517.17
327.534	519.55
327.759	521.52
327.984	526.1
328.209	530.39
328.434	534.23
328.659	538.23
328.884	541.46
329.109	543.46
329.334	547.32
329.559	551.15
329.784	554.01
330.009	556.74
330.234	560.25
330.459	562.35
330.684	564.65
330.909	567.65
331.134	571.81
331.359	574.54
331.584	580.08
331.809	583.06
332.034	587.34
332.259	591.9
332.483	595.92
332.708	601.54
332.933	607.46
333.158	612.01
333.383	617.86
333.607	622.85
333.832	627.34
334.057	631.7
334.282	636.75
334.506	642.3
334.731	647.68
334.956	654.85
335.18	660.85
335.405	665.35
335.63	671.72
335.854	675.72
336.079	679.32
336.303	685.25
336.528	691.03
336.753	697.05
336.977	702.55
337.202	709.25
337.426	714.23
337.651	719.12
337.875	725.74
338.1	731.26
338.324	737.68
338.549	744.83
338.773	752.79
338.997	759.9
339.222	766.59
339.446	773.14
339.671	780.28
339.895	786.97
340.119	795.88
340.344	804.63
340.568	812.32
340.792	819.95
341.017	828.65
341.241	834.57
341.465	841.61
341.689	850.68
341.914	859.68
342.138	866.59
342.362	875.59
342.586	883.14
342.811	889.86
343.035	898.88
343.259	907.39
343.483	915.48
343.707	923.39
343.931	933.7
344.155	941.86
344.38	950.28
344.604	960.39
344.828	968.99
345.052	976.83
345.276	986.88
345.5	995.52
345.724	1006.97
345.948	1016.86
346.172	1029.94
346.396	1038.61
346.62	1050.63
346.844	1059.85
347.068	1069.86
347.292	1080.41
347.515	1090.23
347.739	1101.66
347.963	1113.81
348.187	1122.94
348.411	1133.06
348.635	1141.17
348.859	1153.39
349.082	1161.81
349.306	1172.85
349.53	1183.12
349.754	1193.79
349.977	1205.81
350.201	1215.01
350.425	1225.06
350.649	1237.19
350.872	1249.59
351.096	1260.97
351.32	1271.39
351.543	1282.79
351.767	1295.32
351.99	1309.08
352.214	1320.28
352.438	1331.92
352.661	1343.15
352.885	1354.14
353.108	1364.39
353.332	1377.21
353.555	1388.65
353.779	1399.01
354.002	1410.21
354.226	1420.46
354.449	1428.7
354.673	1440.3
354.896	1451.85
355.12	1465.77
355.343	1477.15
355.566	1489.61
355.79	1499.21
356.013	1512.39
356.237	1524.95
356.46	1537.85
356.683	1551.46
356.907	1563.7
357.13	1576.85
357.353	1589.21
357.576	1599.63
357.8	1613.26
358.023	1625.05
358.246	1636.74
358.469	1650.41
358.693	1662.95
358.916	1674.14
359.139	1686.95
359.362	1699.5
359.585	1711.35
359.808	1726.1
360.031	1740.21
360.255	1754.52
360.478	1766.45
360.701	1780.59
360.924	1791.08
361.147	1803.37
361.37	1816.25
361.593	1830.35
361.816	1844.3
362.039	1857.45
362.262	1871.52
362.485	1884.68
362.708	1895.43
362.931	1910.59
363.154	1923.65
363.377	1938.63
363.599	1955.5
363.822	1972.45
364.045	1985.05
364.268	1999.17
364.491	2011.72
364.714	2022.95
364.936	2035.63
365.159	2049.01
365.382	2063.72
365.605	2080.97
365.828	2097.57
366.05	2110.99
366.273	2124.79
366.496	2138.77
366.718	2155.19
366.941	2172.28
367.164	2190.95
367.386	2207.9
367.609	2225.92
367.832	2242.41
368.054	2257.06
368.277	2271.85
368.5	2288.25
368.722	2303.1
368.945	2320.85
369.167	2335.66
369.39	2351.85
369.612	2364.45
369.835	2382.25
370.057	2400.23
370.28	2416.21
370.502	2432.43
370.725	2449.37
370.947	2464.25
371.169	2482.77
371.392	2498.97
371.614	2517.7
371.837	2536.68
372.059	2554.66
372.281	2569.88
372.504	2584.3
372.726	2599.72
372.948	2615.41
373.171	2629.59
373.393	2646.95
373.615	2664.08
373.837	2680.34
374.06	2696.63
374.282	2713.26
374.504	2730.3
374.726	2746.99
374.948	2767.12
375.17	2785.74
375.393	2804.32
375.615	2825.59
375.837	2841.61
376.059	2860.54
376.281	2880.06
376.503	2898.54
376.725	2918.21
376.947	2937.03
377.169	2957.7
377.391	2977.35
377.613	2998.92
377.835	3021.43
378.057	3041.08
378.279	3065.45
378.501	3087.1
378.723	3109.59
378.945	3131.86
379.167	3152.88
379.389	3176.92
379.611	3200.77
379.833	3224.37
380.054	3245.46
380.276	3265.55
380.498	3290.92
380.72	3315.94
380.942	3340.81
381.163	3364.37
381.385	3387.12
381.607	3412.92
381.829	3436.21
382.05	3456.92
382.272	3480.08
382.494	3508.86
382.716	3535.5
382.937	3558.65
383.159	3582.32
383.381	3604.61
383.602	3629.72
383.824	3657.68
384.045	3683.5
384.267	3708.05
384.488	3737.17
384.71	3764.3
384.932	3789.46
385.153	3815.74
385.375	3841.85
385.596	3869.63
385.818	3898.63
386.039	3928.12
386.261	3955.23
386.482	3982.34
386.703	4013.19
386.925	4042.75
387.146	4072.41
387.368	4098.63
387.589	4128.34
387.81	4156.72
388.032	4185.94
388.253	4215.19
388.474	4241.28
388.696	4270.92
388.917	4298.37
389.138	4328.17
389.359	4352.45
389.581	4381.9
389.802	4410.3
390.023	4440.63
390.244	4469.26
390.465	4495.19
390.687	4522.46
390.908	4552.06
391.129	4579.77
391.35	4609.66
391.571	4638.21
391.792	4669.77
392.013	4696.46
392.234	4728.08
392.455	4756.83
392.677	4789.08
392.898	4821.48
393.119	4850.7
393.34	4885.57
393.561	4917.28
393.782	4948.52
394.003	4982.94
394.223	5016.12
394.444	5047.46
394.665	5080.92
394.886	5113.21
395.107	5146.59
395.328	5181.43
395.549	5219.72
395.77	5251.23
395.99	5286.25
396.211	5321.88
396.432	5354.12
396.653	5387.41
396.874	5421.35
397.094	5454.75
397.315	5491.14
397.536	5527.01
397.757	5558.41
397.977	5591.37
398.198	5624.63
398.419	5659.75
398.639	5692.77
398.86	5726.34
399.081	5763.37
399.301	5797.32
399.522	5830.55
399.742	5861.74
399.963	5893.37
400.184	5932.23
400.404	5967.12
400.625	6003.79
400.845	6036.61
401.066	6070.14
401.286	6101.75
401.507	6132.63
401.727	6169.34
401.948	6205.32
402.168	6238.28
402.388	6271.39
402.609	6300.39
402.829	6333.41
403.05	6365.52
403.27	6397.25
403.49	6435.32
403.711	6467.63
403.931	6504.15
404.151	6537.48
404.372	6571.46
404.592	6608.03
404.812	6642.17
405.032	6681.94
405.253	6712.65
405.473	6745.97
405.693	6780.48
405.913	6811.63
406.133	6849.35
406.353	6886.54
406.574	6921.26
406.794	6953.54
407.014	6989.21
407.234	7027.55
407.454	7061.92
407.674	7096.95
407.894	7133.77
408.114	7170.41
408.334	7209.3
408.554	7246.72
408.774	7281.86
408.994	7322.59
409.214	7361.95
409.434	7401.55
409.654	7436.05
409.874	7476.23
410.094	7513.72
410.314	7549.77
410.534	7587.37
410.754	7622.39
410.974	7660.25
411.193	7697.01
411.413	7734.77
411.633	7771.3
411.853	7805.79
412.073	7845.81
412.292	7876.46
412.512	7917.59
412.732	7956.21
412.952	7994.57
413.171	8036.19
413.391	8078.86
413.611	8121.7
413.831	8160.99
414.05	8201.48
414.27	8243.54
414.489	8284.81
414.709	8329.81
414.929	8375.55
415.148	8419.97
415.368	8460.17
415.587	8502.61
415.807	8545.57
416.026	8584.57
416.246	8625.41
416.465	8668.94
416.685	8713.97
416.904	8759.92
417.124	8802.7
417.343	8843.5
417.563	8883.88
417.782	8936.05
418.002	8983.01
418.221	9021.7
418.44	9065.21
418.66	9109.12
418.879	9156.26
419.098	9199.72
419.318	9243.81
419.537	9291.14
419.756	9340.63
419.976	9386.48
420.195	9427.66
420.414	9466.45
420.633	9512.34
420.853	9561.57
421.072	9603.48
421.291	9645.48
421.51	9688.9
421.729	9734.06
421.948	9775.34
422.168	9812.81
422.387	9858.88
422.606	9903.39
422.825	9952.34
423.044	9998.17
423.263	10037.9
423.482	10078.26
423.701	10124.75
423.92	10165.14
424.139	10205.19
424.358	10246.52
424.577	10291.19
424.796	10337.14
425.015	10384.15
425.234	10424.52
425.453	10466.59
425.672	10514.61
425.891	10564.81
426.11	10608.03
426.328	10654.97
426.547	10703.85
426.766	10756.32
426.985	10805.65
427.204	10852.19
427.422	10900.66
427.641	10951.3
427.86	10999.3
428.079	11048.28
428.297	11098.55
428.516	11148.55
428.735	11198.23
428.954	11244.55
429.172	11291.26
429.391	11340.72
429.61	11388.12
429.828	11434.54
430.047	11482.83
430.265	11532.52
430.484	11576.94
430.703	11623.72
430.921	11667.99
431.14	11717.48
431.358	11764.32
431.577	11813.03
431.795	11863.59
432.014	11911.68
432.232	11960.28
432.451	12007.26
432.669	12050.95
432.887	12100.92
433.106	12151.35
433.324	12201.46
433.543	12250.32
433.761	12299.74
433.979	12344.95
434.198	12388.3
434.416	12440.55
434.634	12485.17
434.853	12531.92
435.071	12579.99
435.289	12629.34
435.507	12671.97
435.726	12712.86
435.944	12756.88
436.162	12806.57
436.38	12851.05
436.598	12897.54
436.817	12936.85
437.035	12984.05
437.253	13028.86
437.471	13073.65
437.689	13119.06
437.907	13165.17
438.125	13220.26
438.343	13269.01
438.561	13314.05
438.78	13364.57
438.998	13412.17
439.216	13463.66
439.434	13510.46
439.652	13557.06
439.869	13609.75
440.087	13656.15
440.305	13709.72
440.523	13756.35
440.741	13799.95
440.959	13848.23
441.177	13896.77
441.395	13944.08
441.613	13996.85
441.831	14044.52
442.048	14091.05
442.266	14134.9
442.484	14179.35
442.702	14225.83
442.919	14270.25
443.137	14325.3
443.355	14375.68
443.573	14423.5
443.79	14477.28
444.008	14517.32
444.226	14567.28
444.443	14620.19
444.661	14667.74
444.879	14722.1
445.096	14771.19
445.314	14817.25
445.532	14857.41
445.749	14901.81
445.967	14951.61
446.184	14994.65
446.402	15033.21
446.619	15080.05
446.837	15124.63
447.054	15172.57
447.272	15215.59
447.489	15256.74
447.707	15304.15
447.924	15359.59
448.141	15407.61
448.359	15454.19
448.576	15505.61
448.794	15564.17
449.011	15612.57
449.228	15660.86
449.446	15716.28
449.663	15764.86
449.88	15819.94
450.098	15875.01
450.315	15925.03
450.532	15974.12
450.749	16020.05
450.967	16066.95
451.184	16116.74
451.401	16162.65
451.618	16213.14
451.835	16258.45
452.052	16309.65
452.27	16356.75
452.487	16400.43
452.704	16443.25
452.921	16482.92
453.138	16536.81
453.355	16579.1
453.572	16621.79
453.789	16668.74
454.006	16717.68
454.223	16771.99
454.44	16810.06
454.657	16852.21
454.874	16901.37
455.091	16951.12
455.308	17004.52
455.525	17047.43
455.742	17099.86
455.959	17150.08
456.176	17199.92
456.393	17251.63
456.609	17287.65
456.826	17339.83
457.043	17387.63
457.26	17438.41
457.477	17480.32
457.693	17521.66
457.91	17561.06
458.127	17601.9
458.344	17643.77
458.56	17681.19
458.777	17710.26
458.994	17752.7
459.21	17794.46
459.427	17828.14
459.644	17860.39
459.86	17896.06
460.077	17936.46
460.294	17984.03
460.51	18020.14
460.727	18056.12
460.943	18097.35
461.16	18134.32
461.376	18172.79
461.593	18202.12
461.809	18249.74
462.026	18293.37
462.242	18337.55
462.459	18375.37
462.675	18406.43
462.892	18441.06
463.108	18481.19
463.324	18516.7
463.541	18558.26
463.757	18600.9
463.974	18648.3
464.19	18690.85
464.406	18729.83
464.623	18772.03
464.839	18819.68
465.055	18864.21
465.271	18919.65
465.488	18964.9
465.704	19008.57
465.92	19064.5
466.136	19113.26
466.353	19159.72
466.569	19217.94
466.785	19272.7
467.001	19323.39
467.217	19376.12
467.433	19436.23
467.649	19486.23
467.865	19553.15
468.082	19616.66
468.298	19677.88
468.514	19739.63
468.73	19811.28
468.946	19868.55
469.162	19932.43
469.378	20002.66
469.594	20071.77
469.81	20135.41
470.026	20206.39
470.242	20258.77
470.457	20329.88
470.673	20392.54
470.889	20458.43
471.105	20521.59
471.321	20587.28
471.537	20654.45
471.753	20725.25
471.968	20792.79
472.184	20864.86
472.4	20933.12
472.616	21007.75
472.832	21080.01
473.047	21155.75
473.263	21229.3
473.479	21305.81
473.694	21376.03
473.91	21450.48
474.126	21514.25
474.341	21590.32
474.557	21663.15
474.773	21730.17
474.988	21803.06
475.204	21869.9
475.42	21938.39
475.635	22009.63
475.851	22071.39
476.066	22140.25
476.282	22208.52
476.497	22275.28
476.713	22329.94
476.928	22388.23
477.144	22464.54
477.359	22525.1
477.575	22592.03
477.79	22657.5
478.005	22721.17
478.221	22786.92
478.436	22850.14
478.651	22908.55
478.867	22972.59
479.082	23038.03
479.297	23104.12
479.513	23157.85
479.728	23223.17
479.943	23273.5
480.159	23328.37
480.374	23388.46
480.589	23441.99
480.804	23493.92
481.019	23546.77
481.235	23601.66
481.45	23648.63
481.665	23686.05
481.88	23736.79
482.095	23783.57
482.31	23838.55
482.525	23885.7
482.741	23925.92
482.956	23974.48
483.171	24020.79
483.386	24061.83
483.601	24100.75
483.816	24147.63
484.031	24198.39
484.246	24233.43
484.461	24281.65
484.676	24323.72
484.891	24366.48
485.105	24410.08
485.32	24444.12
485.535	24480.25
485.75	24525.08
485.965	24571.3
486.18	24612.3
486.395	24657.72
486.609	24704.37
486.824	24743.39
487.039	24783.26
487.254	24822.95
487.469	24864.15
487.683	24916.68
487.898	24960.03
488.113	25006.55
488.327	25043.97
488.542	25086.79
488.757	25126.06
488.972	25164.39
489.186	25203.99
489.401	25242.45
489.615	25272.03
489.83	25305.08
490.045	25336.46
490.259	25367.39
490.474	25393.14
490.688	25430.06
490.903	25464.05
491.117	25488.17
491.332	25511.97
491.546	25540.08
491.761	25567.66
491.975	25602.85
492.19	25633.83
492.404	25668.17
492.618	25706.43
492.833	25735.19
493.047	25755.03
493.262	25781.14
493.476	25821.48
493.69	25856.95
493.905	25882.28
494.119	25920.06
494.333	25953.17
494.547	25983.65
494.762	26016.95
494.976	26039.85
495.19	26064.48
495.404	26101.12
495.619	26132.03
495.833	26153.34
496.047	26173.05
496.261	26188.08
496.475	26197.94
496.689	26205.21
496.903	26209.7
497.117	26202.75
497.332	26208.06
497.546	26220.12
497.76	26208.23
497.974	26187.54
498.188	26179.28
498.402	26171.59
498.616	26165.94
498.83	26153.65
499.044	26150.88
499.258	26148.54
499.472	26150.94
499.685	26151.7
499.899	26143.7
500.113	26157.43
500.327	26174.86
500.541	26183.79
500.755	26196.48
500.969	26215.25
501.183	26228.55
501.396	26243.17
501.61	26259.86
501.824	26275.88
502.038	26293.5
502.251	26320.5
502.465	26337.63
502.679	26356.74
502.892	26373.48
503.106	26388.97
503.32	26413.08
503.533	26437.85
503.747	26458.46
503.961	26478.3
504.174	26499.72
504.388	26527.45
504.602	26557.65
504.815	26592.43
505.029	26628.5
505.242	26673.35
505.456	26721.74
505.669	26761.61
505.883	26810.08
506.096	26858.94
506.31	26916.14
506.523	26978.79
506.736	27031.9
506.95	27076.1
507.163	27131.72
507.377	27190.95
507.59	27245.08
507.803	27303.61
508.017	27375.19
508.23	27440.65
508.443	27509.28
508.657	27566.1
508.87	27620.95
509.083	27688.74
509.296	27767.08
509.51	27840.23
509.723	27915.94
509.936	27994.21
510.149	28075.35
510.363	28155.94
510.576	28245.59
510.789	28336.32
511.002	28435.46
511.215	28535.86
511.428	28623.57
511.641	28718.01
511.854	28820.72
512.067	28920.81
512.28	29023.25
512.493	29124.95
512.707	29223.34
512.92	29322.46
513.132	29418.21
513.345	29514.66
513.558	29619.03
513.771	29735.06
513.984	29836.7
514.197	29936.59
514.41	30040.34
514.623	30151.14
514.836	30262.37
515.049	30370.45
515.262	30475.95
515.474	30576.43
515.687	30682.72
515.9	30782.46
516.113	30885.1
516.325	30983.65
516.538	31069.66
516.751	31165.75
516.964	31254.94
517.176	31339.23
517.389	31414.5
517.602	31490.54
517.814	31579.08
518.027	31661.92
518.24	31741.23
518.452	31815.68
518.665	31892.81
518.877	31980.72
519.09	32055.32
519.303	32125.9
519.515	32197.35
519.728	32263.83
519.94	32334.28
520.153	32398.63
520.365	32470.74
520.578	32532.63
520.79	32593.57
521.002	32660.46
521.215	32715.41
521.427	32764.19
521.64	32815.65
521.852	32868.39
522.064	32923.14
522.277	32983.1
522.489	33049.94
522.701	33092.15
522.914	33147.26
523.126	33199.66
523.338	33242.23
523.551	33282.25
523.763	33336.65
523.975	33391.19
524.187	33433.95
524.399	33480.35
524.612	33518.94
524.824	33550.34
525.036	33598.74
525.248	33636.86
525.46	33684.06
525.672	33723.65
525.884	33759.86
526.096	33793.92
526.308	33825.08
526.521	33862.21
526.733	33904.48
526.945	33930.94
527.157	33950.3
527.369	33974.55
527.581	34008.37
527.793	34034.34
528.004	34071.74
528.216	34100.1
528.428	34131.05
528.64	34151.77
528.852	34183.94
529.064	34217.39
529.276	34251.03
529.488	34281.74
529.699	34310.17
529.911	34329.03
530.123	34355.72
530.335	34383.23
530.547	34420.57
530.758	34456.26
530.97	34496.19
531.182	34525.39
531.393	34557.32
531.605	34592.68
531.817	34631.99
532.029	34666.41
532.24	34700.81
532.452	34723.66
532.663	34740.55
532.875	34764.97
533.087	34781.92
533.298	34807.63
533.51	34832.1
533.721	34845.26
533.933	34864.5
534.144	34884.63
534.356	34895.9
534.567	34919.08
534.779	34933.3
534.99	34947.65
535.202	34957.48
535.413	34973.61
535.624	34982.97
535.836	34995.25
536.047	35008.77
536.259	35019.99
536.47	35034.06
536.681	35045.41
536.893	35050.7
537.104	35060.23
537.315	35076.55
537.526	35097.95
537.738	35119.41
537.949	35133.48
538.16	35149.72
538.371	35172.63
538.582	35195.7
538.794	35219.61
539.005	35237.57
539.216	35258.37
539.427	35282.92
539.638	35304.75
539.849	35317.9
540.06	35323.65
540.272	35330.37
540.483	35336.5
540.694	35343.45
540.905	35338.7
541.116	35340.43
541.327	35355.1
541.538	35354.85
541.749	35359.95
541.96	35370.34
542.17	35373.21
542.381	35380.65
542.592	35396.46
542.803	35409.35
543.014	35413.61
543.225	35432.08
543.436	35440.23
543.647	35445.77
543.857	35464.54
544.068	35480.39
544.279	35481.41
544.49	35499.41
544.701	35504.66
544.911	35507.06
545.122	35516.46
545.333	35532.99
545.543	35544.19
545.754	35543.41
545.965	35549.48
546.175	35563.28
546.386	35561.43
546.597	35578.7
546.807	35583.25
547.018	35592.61
547.229	35606.12
547.439	35611.97
547.65	35601.88
547.86	35600.68
548.071	35611.23
548.281	35621.66
548.492	35608.85
548.702	35623.26
548.913	35620.15
549.123	35634.1
549.333	35645.41
549.544	35646.86
549.754	35658.12
549.965	35676.72
550.175	35689.79
550.385	35705.88
550.596	35729.05
550.806	35741.99
551.016	35744.43
551.227	35753.39
551.437	35754.43
551.647	35763.54
551.857	35778.83
552.068	35782.5
552.278	35784.35
552.488	35794.74
552.698	35792.21
552.908	35777.06
553.119	35780.15
553.329	35782.37
553.539	35782.63
553.749	35783.25
553.959	35763.57
554.169	35765.12
554.379	35760.32
554.589	35759.25
554.799	35747.39
555.009	35747.5
555.219	35751.35
555.429	35754.48
555.639	35751.59
555.849	35754.19
556.059	35757.92
556.269	35768.65
556.479	35766.55
556.689	35765.37
556.899	35765.43
557.109	35763.12
557.319	35769.21
557.528	35779.5
557.738	35771.46
557.948	35768.57
558.158	35761.28
558.368	35755.5
558.577	35744.85
558.787	35731.77
558.997	35724.3
559.207	35710.37
559.416	35710.79
559.626	35684.41
559.836	35654.79
560.045	35653.55
560.255	35648.85
560.465	35645.59
560.674	35635.48
560.884	35642.9
561.093	35640.92
561.303	35633.25
561.512	35629.48
561.722	35611.19
561.932	35606.86
562.141	35600.21
562.351	35589.77
562.56	35585.19
562.769	35580.17
562.979	35574.43
563.188	35562.65
563.398	35549.52
563.607	35540.77
563.817	35541.61
564.026	35538.37
564.235	35546.41
564.445	35541.72
564.654	35546.81
564.863	35529.3
565.073	35513.54
565.282	35494.34
565.491	35478.14
565.7	35462.65
565.91	35450.61
566.119	35430.25
566.328	35417.99
566.537	35406.5
566.746	35395.46
566.956	35366.74
567.165	35356.45
567.374	35348.34
567.583	35344.54
567.792	35331.21
568.001	35317.1
568.21	35296.41
568.419	35268.85
568.628	35239.5
568.837	35202.57
569.046	35182.15
569.255	35150.45
569.464	35124.3
569.673	35091.34
569.882	35060.32
570.091	35031.12
570.3	34999.12
570.509	34986.15
570.718	34969.39
570.927	34964.66
571.135	34948.72
571.344	34929.85
571.553	34918.54
571.762	34908.12
571.971	34892.65
572.18	34877.48
572.388	34864.21
572.597	34851.94
572.806	34829.28
573.014	34813.34
573.223	34780.94
573.432	34760.88
573.641	34745.28
573.849	34728.28
574.058	34695.97
574.266	34671.57
574.475	34638.21
574.684	34623.85
574.892	34611.52
575.101	34593.28
575.309	34571.5
575.518	34564.35
575.726	34545.5
575.935	34514.03
576.143	34497.12
576.352	34495.01
576.56	34475.48
576.769	34462.77
576.977	34437.95
577.186	34418.79
577.394	34398.55
577.602	34373.94
577.811	34340.1
578.019	34321.17
578.228	34299.05
578.436	34276.77
578.644	34240.19
578.852	34217.01
579.061	34188.86
579.269	34158.03
579.477	34136.17
579.685	34111.39
579.894	34092.7
580.102	34077.48
580.31	34047.94
580.518	34031.25
580.726	34007.5
580.935	33991.59
581.143	33978.79
581.351	33959.95
581.559	33946.26
581.767	33908.94
581.975	33883.7
582.183	33861.41
582.391	33829.37
582.599	33806.32
582.807	33773.19
583.015	33738.14
583.223	33712.03
583.431	33687.15
583.639	33668.81
583.847	33636.59
584.055	33622.52
584.263	33596.75
584.471	33564.75
584.678	33549.88
584.886	33526.05
585.094	33513.46
585.302	33500.32
585.51	33466.72
585.718	33439.1
585.925	33414.77
586.133	33402.23
586.341	33374.79
586.549	33357.9
586.756	33334.79
586.964	33309.79
587.172	33284.12
587.379	33249.05
587.587	33216.66
587.795	33201.06
588.002	33171.35
588.21	33139.45
588.417	33090.65
588.625	33053.23
588.833	33013.77
589.04	32991.41
589.248	32961.74
589.455	32938.03
589.663	32916.15
589.87	32890.03
590.078	32854.85
590.285	32829.26
590.492	32811.52
590.7	32802.63
590.907	32790.86
591.115	32767.88
591.322	32738.9
591.529	32709.46
591.737	32684.79
591.944	32654.06
592.151	32621.32
592.359	32592.17
592.566	32564.92
592.773	32527.77
592.981	32487.14
593.188	32449.26
593.395	32419.3
593.602	32392.5
593.809	32365.23
594.017	32327.52
594.224	32295.95
594.431	32268.34
594.638	32238.85
594.845	32204.52
595.052	32175.63
595.259	32154.66
595.466	32139.08
595.673	32112.54
595.88	32089.25
596.088	32062.52
596.295	32042.08
596.502	32008.25
596.709	31987.66
596.915	31967.15
597.122	31943.55
597.329	31912.14
597.536	31882.94
597.743	31843.25
597.95	31814.48
598.157	31779.14
598.364	31737.63
598.571	31690.21
598.777	31650.88
598.984	31595.45
599.191	31534.37
599.398	31483.85
599.605	31435.46
599.811	31384.83
600.018	31334.63
600.225	31280.37
600.431	31218.3
600.638	31166.63
600.845	31124.12
601.052	31093.12
601.258	31053.85
601.465	31014.46
601.671	30957.63
601.878	30880.12
602.085	30784.25
602.291	30678.61
602.498	30558.52
602.704	30426.7
602.911	30265.23
603.117	30086.41
603.324	29877.05
603.53	29659.99
603.737	29429.25
603.943	29185.74
604.15	28949.17
604.356	28705.77
604.562	28452.99
604.769	28202.1
604.975	27943.61
605.181	27697.55
605.388	27439.3
605.594	27178.3
605.8	26923.45
606.007	26671.15
606.213	26407.06
606.419	26143.46
606.625	25881.39
606.832	25620.08
607.038	25351.19
607.244	25086.92
607.45	24813.5
607.656	24548.21
607.863	24280.54
608.069	24009.06
608.275	23725.97
608.481	23465.41
608.687	23191.88
608.893	22924.9
609.099	22653.55
609.305	22379.57
609.511	22104.21
609.717	21825.35
609.923	21539.17
610.129	21262.7
610.335	20978.57
610.541	20691.97
610.747	20399.35
610.953	20111.95
611.159	19813.97
611.365	19512.1
611.571	19208.79
611.776	18902.99
611.982	18599.43
612.188	18294.57
612.394	17983.52
612.6	17665.97
612.806	17351.97
613.011	17036.06
613.217	16724.32
613.423	16415.41
613.628	16110.3
613.834	15802.5
614.04	15505.39
614.246	15212.63
614.451	14927.94
614.657	14649.25
614.862	14382.59
615.068	14126.05
615.274	13866.54
615.479	13608.23
615.685	13353.68
615.89	13104.99
616.096	12870.08
616.301	12623.32
616.507	12381.3
616.712	12131.25
616.918	11877.79
617.123	11622.41
617.329	11358.86
617.534	11099.75
617.74	10841.25
617.945	10577.97
618.15	10295.46
618.356	9854.01
618.561	9065.39
618.766	8104.34
618.972	7117.55
619.177	6157.85
619.382	5221.68
619.588	4312.86
619.793	3767.26
619.998	3126.26
620.203	2362.02
620.408	1442.36
620.614	541.2
