Data from test1_MAYP1115451__90__10-17-40-815.txt Node

Date: Wed Jun 12 10:17:40 MDT 2024
User: Modes Lab
Spectrometer: MAYP111545
Trigger mode: 0
Integration Time (sec): 8.000000E-3
Scans to average: 5
Electric dark correction enabled: true
Nonlinearity correction enabled: false
Boxcar width: 5
XAxis mode: Wavelengths
Number of Pixels in Spectrum: 2068
>>>>>Begin Spectral Data<<<<<
165.214	163.27
165.449	163.55
165.683	172.37
165.918	181.91
166.152	187.89
166.387	192.79
166.621	124.67
166.856	163.45
167.09	182.76
167.325	206.7
167.559	222.65
167.794	236.96
168.028	244.28
168.263	245.68
168.497	244.85
168.732	246.38
168.966	247.34
169.2	248.92
169.435	249.96
169.669	250.99
169.903	251.7
170.138	252.92
170.372	254.38
170.606	255.67
170.841	256.61
171.075	257.92
171.309	258.52
171.544	260.32
171.778	261.21
172.012	263.18
172.246	264.18
172.48	266.36
172.715	268.87
172.949	270.96
173.183	273.48
173.417	276.25
173.651	277.9
173.885	279.63
174.119	280.43
174.354	281.32
174.588	281.63
174.822	281.32
175.056	281.39
175.29	281.54
175.524	281.08
175.758	280.34
175.992	279.99
176.226	280.27
176.46	279.7
176.694	281.27
176.928	282.07
177.162	282.78
177.396	284.88
177.63	285.78
177.864	286.39
178.097	288.25
178.331	289.3
178.565	290.14
178.799	290.83
179.033	291.54
179.267	289.81
179.5	290.41
179.734	291.52
179.968	291.74
180.202	292.68
180.436	293.56
180.669	293.85
180.903	294.48
181.137	295.25
181.371	296.78
181.604	298.47
181.838	301.5
182.072	302.07
182.305	303.25
182.539	303.9
182.772	303.99
183.006	305.21
183.24	305.85
183.473	309.81
183.707	310.67
183.94	311.38
184.174	312.36
184.408	312.43
184.641	314.16
184.875	315.76
185.108	317.58
185.342	318.7
185.575	320.34
185.808	321.58
186.042	321.27
186.275	322.32
186.509	323.92
186.742	326.38
186.976	328.38
187.209	329.45
187.442	329.52
187.676	330.83
187.909	332.63
188.142	334.47
188.376	335.59
188.609	335.79
188.842	337.67
189.076	339.14
189.309	339.41
189.542	340.78
189.775	342.74
190.009	345.32
190.242	347.5
190.475	348.45
190.708	349.41
190.941	351.34
191.174	353.87
191.408	355.79
191.641	356.48
191.874	358.74
192.107	361.21
192.34	363.74
192.573	365.76
192.806	367.07
193.039	369.85
193.272	372.01
193.505	374.58
193.738	374.7
193.971	376.94
194.204	379.54
194.437	381.32
194.67	382.54
194.903	383.83
195.136	385.5
195.369	387.47
195.602	388.48
195.835	390.48
196.068	392.23
196.301	395.56
196.533	396.83
196.766	398.25
196.999	399.87
197.232	401.52
197.465	403.08
197.698	404.08
197.93	405.58
198.163	408.47
198.396	409.81
198.629	412.36
198.861	414.25
199.094	416.9
199.327	419.76
199.559	421.39
199.792	423.83
200.025	425.74
200.257	428.16
200.49	431.47
200.723	433.92
200.955	435.81
201.188	436.59
201.42	438.92
201.653	440.19
201.886	442.5
202.118	445.9
202.351	448.68
202.583	451.85
202.816	455.18
203.048	456.45
203.281	458.05
203.513	460.47
203.745	463.41
203.978	465.59
204.21	467.72
204.443	469.58
204.675	471.7
204.907	472.68
205.14	474.36
205.372	475.03
205.605	477.83
205.837	480.36
206.069	483.25
206.302	485.76
206.534	486.34
206.766	488.59
206.998	490.38
207.231	491.3
207.463	494.7
207.695	497.83
207.927	500.68
208.159	502.43
208.392	504.65
208.624	506.19
208.856	507.99
209.088	511.52
209.32	514.88
209.552	517.03
209.784	519.08
210.017	520.81
210.249	521.56
210.481	523.08
210.713	524.28
210.945	526.87
211.177	529.01
211.409	530.79
211.641	533.43
211.873	533.85
212.105	536.96
212.337	538.68
212.569	539.03
212.801	542.38
213.033	544.32
213.264	546.94
213.496	547.9
213.728	549.28
213.96	552.23
214.192	552.65
214.424	554.78
214.656	556.25
214.887	558.81
215.119	562.03
215.351	563.78
215.583	565.21
215.815	567.61
216.046	569.72
216.278	572.18
216.51	572.39
216.741	574.94
216.973	577.78
217.205	578.68
217.436	580.32
217.668	582.21
217.9	582.45
218.131	583.43
218.363	584.58
218.595	585.45
218.826	585.27
219.058	587.14
219.289	588.47
219.521	588.32
219.752	590.14
219.984	590.48
220.215	591.54
220.447	592.59
220.678	593.19
220.91	593.68
221.141	594.61
221.373	596.14
221.604	596.92
221.836	598.65
222.067	601.01
222.298	601.87
222.53	603.92
222.761	605.21
222.993	605.98
223.224	608.54
223.455	609.5
223.686	612.08
223.918	613.76
224.149	614.94
224.38	614.83
224.612	615.63
224.843	615.25
225.074	615.36
225.305	615.59
225.536	616.36
225.768	617.67
225.999	619.05
226.23	617.99
226.461	617.85
226.692	617.1
226.923	617.99
227.155	619.34
227.386	621.14
227.617	621.9
227.848	621.54
228.079	623.1
228.31	621.68
228.541	620.56
228.772	621.7
229.003	622.25
229.234	623.65
229.465	622.79
229.696	620.85
229.927	621.01
230.158	620.65
230.389	620.01
230.62	619.85
230.85	619.83
231.081	620.65
231.312	619.63
231.543	619.61
231.774	619.28
232.005	620.7
232.236	620.25
232.466	620.12
232.697	620.85
232.928	621.98
233.159	620.59
233.389	621.98
233.62	623.08
233.851	623.45
234.082	623.25
234.312	623.1
234.543	622.96
234.774	623.99
235.004	623.36
235.235	622.68
235.466	621.76
235.696	622.23
235.927	621.47
236.157	619.9
236.388	620.16
236.618	620.12
236.849	619.43
237.08	619.41
237.31	618.34
237.541	618.08
237.771	617.74
238.002	618.12
238.232	617.56
238.463	618.72
238.693	618.12
238.923	617.76
239.154	617.08
239.384	616.5
239.615	615.27
239.845	615.94
240.075	615.63
240.306	615.63
240.536	615.56
240.766	615.67
240.997	613.74
241.227	614.83
241.457	614.08
241.687	615.16
241.918	615.65
242.148	616.14
242.378	615.67
242.608	614.79
242.839	614.28
243.069	612.96
243.299	612.07
243.529	613.43
243.759	612.21
243.989	612.48
244.22	610.5
244.45	610.03
244.68	608.27
244.91	607.81
245.14	606.81
245.37	607.03
245.6	607.36
245.83	608.03
246.06	605.05
246.29	605.59
246.52	604.94
246.75	604.7
246.98	605.7
247.21	605.38
247.44	604.12
247.67	604.9
247.9	603.98
248.13	602.78
248.359	601.87
248.589	602.78
248.819	601.59
249.049	599.72
249.279	600.32
249.509	598.27
249.738	597.61
249.968	596.21
250.198	595.27
250.428	595.5
250.657	594.16
250.887	593.28
251.117	593.78
251.347	592.45
251.576	592.45
251.806	589.85
252.036	589.59
252.265	589.45
252.495	590.08
252.725	589.83
252.954	588.21
253.184	589.5
253.413	589.85
253.643	586.65
253.873	586.47
254.102	585.72
254.332	586.61
254.561	585.08
254.791	584.3
255.02	583.14
255.25	581.72
255.479	581.25
255.708	580.88
255.938	579.67
256.167	579.39
256.397	577.92
256.626	577.56
256.856	576.85
257.085	576.9
257.314	576.27
257.544	576.47
257.773	576.58
258.002	576.36
258.232	574.98
258.461	574.16
258.69	574.32
258.919	574.54
259.149	573.99
259.378	572.65
259.607	571.52
259.836	571.68
260.065	570.56
260.295	569.38
260.524	567.7
260.753	567.79
260.982	566.67
261.211	565.63
261.44	564.7
261.669	563.36
261.899	562.85
262.128	562.03
262.357	559.78
262.586	559.65
262.815	558.68
263.044	558.16
263.273	558.36
263.502	557.59
263.731	556.05
263.96	555.38
264.189	555.21
264.418	555.25
264.646	554.99
264.875	555.21
265.104	553.9
265.333	552.32
265.562	551.81
265.791	549.18
266.02	548.43
266.249	547.76
266.477	546.38
266.706	543.99
266.935	542.43
267.164	541.27
267.393	539.87
267.621	539.78
267.85	539.98
268.079	540.14
268.307	538.94
268.536	537.74
268.765	538.48
268.993	538.58
269.222	539.27
269.451	538.52
269.679	537.43
269.908	537.23
270.137	534.28
270.365	535.68
270.594	535.25
270.822	536.52
271.051	537.34
271.279	537.28
271.508	538.23
271.736	539.47
271.965	539.72
272.193	541.36
272.422	541.76
272.65	543.67
272.879	542.08
273.107	541.28
273.336	539.68
273.564	539.38
273.792	537.68
274.021	534.88
274.249	533.16
274.477	531.25
274.706	529.72
274.934	528.08
275.162	527.14
275.391	526.27
275.619	526.03
275.847	525.23
276.075	523.88
276.304	523.94
276.532	523.99
276.76	524.45
276.988	524.21
277.216	523.9
277.445	523.83
277.673	522.59
277.901	522.45
278.129	520.85
278.357	519.81
278.585	518.65
278.813	518.39
279.041	517.98
279.269	515.88
279.497	516.68
279.725	515.25
279.954	513.98
280.182	513.67
280.41	512.9
280.637	512.56
280.865	512.38
281.093	513.01
281.321	511.87
281.549	511.65
281.777	512.76
282.005	512.21
282.233	511.78
282.461	511.25
282.689	510.99
282.916	510.32
283.144	509.98
283.372	509.56
283.6	508.38
283.828	507.68
284.055	506.54
284.283	504.59
284.511	503.76
284.739	505.21
284.966	505.58
285.194	503.79
285.422	503.27
285.649	502.16
285.877	501.16
286.105	499.96
286.332	500.08
286.56	500.94
286.788	500.7
287.015	501.05
287.243	498.12
287.47	497.43
287.698	497.25
287.925	496.76
288.153	498.19
288.381	498.63
288.608	498.74
288.836	497.19
289.063	494.99
289.29	494.38
289.518	492.63
289.745	492.81
289.973	491.18
290.2	491.25
290.428	490.78
290.655	488.72
290.882	487.92
291.11	486.38
291.337	486.61
291.564	486.38
291.792	485.61
292.019	484.48
292.246	483.32
292.473	483.18
292.701	483.05
292.928	482.68
293.155	481.76
293.382	481.12
293.61	481.79
293.837	481.19
294.064	480.72
294.291	479.59
294.518	478.52
294.745	479.01
294.972	478.68
295.2	477.56
295.427	477.08
295.654	477.21
295.881	475.41
296.108	474.56
296.335	474.5
296.562	474.81
296.789	475.48
297.016	475.92
297.243	475.56
297.47	475.38
297.697	474.83
297.924	473.32
298.151	471.61
298.378	472.7
298.604	472.23
298.831	470.76
299.058	469.21
299.285	467.9
299.512	466.34
299.739	465.81
299.966	465.48
300.192	465.03
300.419	464.01
300.646	464.28
300.873	461.81
301.099	463.03
301.326	461.7
301.553	462.88
301.78	463.36
302.006	463.92
302.233	462.79
302.46	461.76
302.686	462.05
302.913	462.59
303.14	461.65
303.366	464.05
303.593	462.1
303.819	463.08
304.046	461.88
304.272	461.76
304.499	462.48
304.725	462.39
304.952	461.61
305.179	461.68
305.405	461.08
305.631	461.72
305.858	460.1
306.084	459.48
306.311	460.01
306.537	459.78
306.764	457.92
306.99	457.14
307.216	457.41
307.443	457.59
307.669	456.88
307.895	457.43
308.122	455.88
308.348	457.19
308.574	457.52
308.801	456.7
309.027	456.07
309.253	456.12
309.479	455.48
309.706	454.79
309.932	455.25
310.158	455.25
310.384	454.92
310.61	456.18
310.837	453.5
311.063	453.14
311.289	451.7
311.515	451.59
311.741	452.14
311.967	451.41
312.193	450.94
312.419	449.41
312.645	448.05
312.871	447.47
313.097	447.38
313.323	447.87
313.549	447.59
313.775	449.36
314.001	448.38
314.227	448.87
314.453	449.81
314.679	449.48
314.905	451.32
315.131	451.85
315.357	452.32
315.583	452.92
315.809	452.7
316.034	453.65
316.26	454.34
316.486	455.61
316.712	455.47
316.938	456.14
317.163	456.81
317.389	457.32
317.615	457.54
317.841	458.27
318.066	458.43
318.292	459.87
318.518	460.47
318.743	460.3
318.969	460.56
319.195	461.16
319.42	461.72
319.646	462.78
319.872	463.76
320.097	464.63
320.323	464.34
320.548	465.88
320.774	467.61
320.999	468.07
321.225	468.85
321.45	470.25
321.676	471.07
321.901	473.23
322.127	474.88
322.352	475.98
322.578	478.52
322.803	480.74
323.029	481.58
323.254	481.36
323.479	482.83
323.705	484.67
323.93	487.43
324.155	489.83
324.381	490.78
324.606	493.39
324.831	494.12
325.057	495.74
325.282	498.87
325.507	500.28
325.732	504.16
325.958	507.92
326.183	510.14
326.408	511.14
326.633	514.72
326.858	517.43
327.084	518.79
327.309	521.96
327.534	524.83
327.759	527.38
327.984	531.05
328.209	533.18
328.434	534.7
328.659	537.9
328.884	543.01
329.109	544.28
329.334	547.08
329.559	550.83
329.784	554.43
330.009	557.67
330.234	561.07
330.459	564.74
330.684	569.54
330.909	572.94
331.134	576.07
331.359	578.56
331.584	583.61
331.809	586.19
332.034	590.07
332.259	593.28
332.483	597.72
332.708	601.19
332.933	605.39
333.158	609.58
333.383	614.43
333.607	618.63
333.832	622.98
334.057	627.5
334.282	633.5
334.506	638.1
334.731	643.5
334.956	648.59
335.18	653.78
335.405	658.28
335.63	663.88
335.854	669.61
336.079	676.36
336.303	682.48
336.528	688.99
336.753	694.96
336.977	701.45
337.202	707.61
337.426	713.96
337.651	720.12
337.875	727.19
338.1	733.76
338.324	739.76
338.549	746.52
338.773	752.39
338.997	758.14
339.222	764.98
339.446	771.78
339.671	779.56
339.895	785.52
340.119	793.5
340.344	801.54
340.568	808.39
340.792	815.98
341.017	823.32
341.241	831.45
341.465	839.88
341.689	847.81
341.914	855.7
342.138	862.9
342.362	872.01
342.586	880.01
342.811	888.27
343.035	896.63
343.259	905.88
343.483	915.45
343.707	923.61
343.931	933.56
344.155	941.72
344.38	951.7
344.604	962.76
344.828	971.52
345.052	980.56
345.276	989.32
345.5	997.54
345.724	1006.14
345.948	1015.83
346.172	1026.7
346.396	1035.03
346.62	1047.48
346.844	1058.96
347.068	1066.81
347.292	1077.54
347.515	1088.81
347.739	1099.9
347.963	1110.99
348.187	1121.81
348.411	1131.3
348.635	1141.07
348.859	1152.23
349.082	1160.1
349.306	1169.01
349.53	1181.1
349.754	1192.28
349.977	1202.23
350.201	1211.92
350.425	1223.76
350.649	1235.36
350.872	1246.76
351.096	1259.92
351.32	1269.52
351.543	1283.01
351.767	1294.63
351.99	1305.54
352.214	1316.28
352.438	1326.61
352.661	1336.76
352.885	1346.48
353.108	1356.98
353.332	1367.16
353.555	1376.7
353.779	1389.78
354.002	1401.21
354.226	1410.79
354.449	1421.98
354.673	1433.32
354.896	1445.56
355.12	1459.45
355.343	1471.96
355.566	1486.39
355.79	1499.47
356.013	1513.25
356.237	1525.28
356.46	1537.27
356.683	1550.03
356.907	1562.54
357.13	1575.12
357.353	1587.41
357.576	1599.14
357.8	1612.56
358.023	1623.72
358.246	1635.99
358.469	1646.39
358.693	1659.61
358.916	1672.61
359.139	1686.74
359.362	1700.79
359.585	1714.79
359.808	1726.52
360.031	1739.07
360.255	1751.81
360.478	1764.98
360.701	1777.19
360.924	1792.5
361.147	1804.03
361.37	1815.94
361.593	1828.87
361.816	1840.72
362.039	1853.61
362.262	1869.32
362.485	1881.96
362.708	1893.99
362.931	1908.98
363.154	1924.61
363.377	1936.61
363.599	1949.41
363.822	1966.36
364.045	1978.94
364.268	1994.3
364.491	2008.68
364.714	2024.5
364.936	2040.58
365.159	2054.5
365.382	2066.38
365.605	2079.99
365.828	2096.76
366.05	2113.39
366.273	2127.34
366.496	2143.1
366.718	2157.18
366.941	2171.92
367.164	2187.48
367.386	2203.94
367.609	2220.39
367.832	2236.85
368.054	2253.67
368.277	2267.7
368.5	2283.99
368.722	2298.68
368.945	2314.85
369.167	2331.47
369.39	2346.7
369.612	2360.59
369.835	2375.88
370.057	2397.88
370.28	2414.05
370.502	2431.41
370.725	2449.03
370.947	2466.58
371.169	2483.7
371.392	2502.58
371.614	2520.36
371.837	2536.54
372.059	2551.88
372.281	2569.39
372.504	2583.39
372.726	2598.58
372.948	2611.74
373.171	2627.41
373.393	2644.39
373.615	2661.9
373.837	2677.01
374.06	2694.9
374.282	2715.5
374.504	2735.9
374.726	2754.52
374.948	2770.3
375.17	2790.83
375.393	2813.25
375.615	2832.25
375.837	2849.88
376.059	2866.67
376.281	2887.3
376.503	2906.63
376.725	2925.27
376.947	2946.45
377.169	2963.87
377.391	2985.68
377.613	3008.28
377.835	3026.39
378.057	3048.41
378.279	3069.85
378.501	3092.61
378.723	3113.34
378.945	3133.39
379.167	3154.34
379.389	3175.38
379.611	3199.21
379.833	3219.61
380.054	3240.36
380.276	3263.7
380.498	3283.36
380.72	3304.99
380.942	3328.72
381.163	3353.87
381.385	3378.74
381.607	3404.18
381.829	3426.14
382.05	3452.83
382.272	3477.16
382.494	3503.68
382.716	3528.12
382.937	3558.83
383.159	3586.41
383.381	3614.81
383.602	3640.78
383.824	3666.08
384.045	3693.16
384.267	3719.45
384.488	3740.19
384.71	3766.96
384.932	3792.99
385.153	3817.3
385.375	3842.47
385.596	3869.7
385.818	3891.61
386.039	3916.58
386.261	3944.61
386.482	3972.41
386.703	4001.94
386.925	4033.96
387.146	4064.88
387.368	4090.18
387.589	4122.58
387.81	4153.12
388.032	4182.23
388.253	4214.27
388.474	4242.08
388.696	4269.94
388.917	4297.52
389.138	4324.43
389.359	4352.63
389.581	4380.23
389.802	4413.34
390.023	4438.99
390.244	4463.1
390.465	4489.38
390.687	4516.92
390.908	4548.34
391.129	4576.45
391.35	4604.07
391.571	4636.59
391.792	4665.43
392.013	4698.38
392.234	4726.52
392.455	4760.78
392.677	4794.61
392.898	4827.67
393.119	4861.1
393.34	4893.79
393.561	4927.23
393.782	4961.01
394.003	4991.56
394.223	5024.63
394.444	5055.14
394.665	5087.58
394.886	5121.48
395.107	5154.59
395.328	5188.61
395.549	5223.03
395.77	5255.1
395.99	5291.85
396.211	5324.19
396.432	5357.19
396.653	5390.94
396.874	5419.61
397.094	5457.07
397.315	5488.32
397.536	5520.14
397.757	5554.16
397.977	5586.16
398.198	5620.27
398.419	5651.01
398.639	5684.74
398.86	5720.43
399.081	5754.72
399.301	5791.61
399.522	5819.7
399.742	5855.61
399.963	5892.16
400.184	5924.96
400.404	5956.63
400.625	5992.54
400.845	6024.43
401.066	6058.36
401.286	6094.32
401.507	6126.48
401.727	6162.78
401.948	6198.54
402.168	6231.08
402.388	6263.52
402.609	6295.56
402.829	6334.25
403.05	6364.96
403.27	6400.48
403.49	6435.7
403.711	6469.03
403.931	6505.25
404.151	6538.96
404.372	6568.58
404.592	6602.38
404.812	6638.16
405.032	6676.99
405.253	6710.68
405.473	6745.76
405.693	6778.88
405.913	6814.47
406.133	6848.36
406.353	6887.14
406.574	6918.19
406.794	6959.19
407.014	6997.59
407.234	7030.14
407.454	7060.68
407.674	7093.32
407.894	7128.43
408.114	7168.14
408.334	7205.74
408.554	7243.12
408.774	7276.01
408.994	7314.99
409.214	7349.12
409.434	7385.47
409.654	7425.28
409.874	7461.88
410.094	7499.5
410.314	7536.81
410.534	7574.25
410.754	7607.36
410.974	7646.47
411.193	7686.16
411.413	7729.27
411.633	7770.1
411.853	7805.96
412.073	7845.36
412.292	7885.92
412.512	7926.94
412.732	7966.7
412.952	8007.76
413.171	8049.52
413.391	8090.61
413.611	8129.21
413.831	8171.85
414.05	8214.52
414.27	8260.72
414.489	8302.68
414.709	8346.01
414.929	8388.48
415.148	8433.47
415.368	8470.81
415.587	8514.83
415.807	8556.05
416.026	8598.32
416.246	8634.07
416.465	8672.3
416.685	8711.94
416.904	8758.05
417.124	8803.87
417.343	8847.21
417.563	8889.9
417.782	8939.88
418.002	8984.34
418.221	9030.18
418.44	9074.79
418.66	9117.81
418.879	9164.5
419.098	9207.38
419.318	9243.65
419.537	9286.05
419.756	9330.61
419.976	9374.01
420.195	9411.25
420.414	9456.3
420.633	9494.63
420.853	9541.19
421.072	9591.28
421.291	9633.5
421.51	9683.98
421.729	9730.07
421.948	9772.99
422.168	9816.07
422.387	9860.05
422.606	9906.68
422.825	9947.72
423.044	9995.99
423.263	10038.01
423.482	10081.32
423.701	10130.19
423.92	10170.27
424.139	10211.3
424.358	10255.88
424.577	10298.96
424.796	10347.63
425.015	10393.41
425.234	10437.87
425.453	10483.21
425.672	10527.96
425.891	10571.96
426.11	10613.83
426.328	10658.88
426.547	10711.12
426.766	10755.99
426.985	10803.7
427.204	10843.63
427.422	10891.03
427.641	10940.16
427.86	10986.81
428.079	11036.12
428.297	11086.92
428.516	11137.01
428.735	11186.81
428.954	11234.58
429.172	11286.96
429.391	11337.92
429.61	11391.7
429.828	11437.85
430.047	11486.81
430.265	11534.07
430.484	11580.83
430.703	11625.27
430.921	11678.34
431.14	11721.83
431.358	11768.18
431.577	11809.18
431.795	11854.19
432.014	11900.1
432.232	11950.58
432.451	12000.79
432.669	12046.88
432.887	12093.72
433.106	12137.59
433.324	12179.01
433.543	12232.56
433.761	12281.81
433.979	12335.45
434.198	12382.81
434.416	12430.61
434.634	12473.47
434.853	12516.21
435.071	12562.98
435.289	12609.27
435.507	12657.74
435.726	12706.1
435.944	12744.3
436.162	12791.21
436.38	12832.08
436.598	12878.12
436.817	12925.96
437.035	12974.72
437.253	13021.79
437.471	13068.07
437.689	13118.18
437.907	13170.58
438.125	13214.32
438.343	13263.16
438.561	13310.98
438.78	13360.23
438.998	13411.56
439.216	13456.03
439.434	13502.25
439.652	13548.08
439.869	13596.45
440.087	13643.01
440.305	13693.01
440.523	13745.23
440.741	13800.05
440.959	13845.85
441.177	13894.68
441.395	13936.65
441.613	13987.88
441.831	14035.83
442.048	14081.76
442.266	14130.19
442.484	14172.34
442.702	14214.96
442.919	14262.87
443.137	14311.08
443.355	14363.76
443.573	14413.74
443.79	14465.83
444.008	14516.3
444.226	14573.61
444.443	14629.21
444.661	14677.32
444.879	14732.98
445.096	14779.3
445.314	14828.81
445.532	14873.99
445.749	14922.9
445.967	14965.47
446.184	15016.48
446.402	15061.34
446.619	15100.94
446.837	15143.1
447.054	15190.72
447.272	15236.27
447.489	15284.74
447.707	15331.61
447.924	15378.99
448.141	15426.63
448.359	15479.63
448.576	15525.68
448.794	15571.68
449.011	15620.63
449.228	15668.87
449.446	15714.43
449.663	15762.76
449.88	15811.58
450.098	15859.1
450.315	15904.92
450.532	15947.63
450.749	15998.81
450.967	16040.81
451.184	16083.78
451.401	16134.03
451.618	16183.9
451.835	16232.36
452.052	16276.76
452.27	16327.38
452.487	16371.05
452.704	16421.59
452.921	16466.68
453.138	16507.1
453.355	16555.83
453.572	16606.67
453.789	16657.18
454.006	16706.99
454.223	16756.7
454.44	16803.01
454.657	16844.88
454.874	16895.94
455.091	16941.85
455.308	16987.47
455.525	17031.81
455.742	17086.76
455.959	17131.99
456.176	17180.74
456.393	17227.74
456.609	17274.08
456.826	17328.47
457.043	17381.03
457.26	17427.16
457.477	17474.85
457.693	17525.88
457.91	17574.9
458.127	17610.48
458.344	17661.27
458.56	17699.5
458.777	17740.25
458.994	17774.9
459.21	17811.21
459.427	17839.54
459.644	17869.5
459.86	17899.38
460.077	17930.76
460.294	17972.72
460.51	18008.72
460.727	18043.94
460.943	18071.61
461.16	18100.61
461.376	18146.23
461.593	18183.03
461.809	18228.96
462.026	18275.36
462.242	18319.61
462.459	18355.07
462.675	18389.5
462.892	18428.16
463.108	18465.16
463.324	18510.36
463.541	18552.56
463.757	18591.7
463.974	18632.47
464.19	18679.47
464.406	18719.88
464.623	18774.94
464.839	18830.01
465.055	18878.67
465.271	18924.98
465.488	18969.88
465.704	19019.21
465.92	19073.7
466.136	19125.48
466.353	19176.01
466.569	19221.45
466.785	19274.5
467.001	19311.48
467.217	19356.65
467.433	19415.87
467.649	19483.61
467.865	19547.5
468.082	19608.78
468.298	19669.56
468.514	19725.81
468.73	19788.58
468.946	19853.25
469.162	19920.81
469.378	19987.07
469.594	20063.05
469.81	20120.14
470.026	20175.07
470.242	20235.14
470.457	20302.59
470.673	20367.88
470.889	20438.21
471.105	20509.54
471.321	20576.36
471.537	20636.03
471.753	20707.12
471.968	20767.28
472.184	20841.58
472.4	20915.32
472.616	20991.61
472.832	21060.83
473.047	21136.81
473.263	21210.87
473.479	21281.16
473.694	21349.85
473.91	21428.03
474.126	21507.5
474.341	21588.59
474.557	21659.59
474.773	21728.21
474.988	21788.99
475.204	21860.39
475.42	21936.45
475.635	22003.94
475.851	22071.72
476.066	22141.78
476.282	22206.52
476.497	22268.58
476.713	22328.92
476.928	22394.96
477.144	22463.39
477.359	22545.1
477.575	22603.12
477.79	22655.28
478.005	22713.3
478.221	22777.1
478.436	22837.43
478.651	22899.3
478.867	22950.81
479.082	23008.48
479.297	23067.79
479.513	23126.63
479.728	23171.18
479.943	23232.45
480.159	23289.08
480.374	23345.98
480.589	23396.74
480.804	23456.23
481.019	23509.78
481.235	23566.68
481.45	23615.1
481.665	23663.23
481.88	23711.01
482.095	23757.9
482.31	23805.43
482.525	23849.16
482.741	23902.43
482.956	23946.47
483.171	23994.59
483.386	24038.16
483.601	24084.61
483.816	24129.96
484.031	24176.52
484.246	24220.9
484.461	24266.01
484.676	24315.94
484.891	24358.18
485.105	24395.67
485.32	24441.38
485.535	24480.81
485.75	24526.87
485.965	24566.05
486.18	24610.08
486.395	24648.68
486.609	24692.21
486.824	24739.48
487.039	24772.34
487.254	24825.83
487.469	24872.27
487.683	24911.19
487.898	24943.39
488.113	24985.65
488.327	25030.21
488.542	25069.05
488.757	25107.39
488.972	25146.25
489.186	25179.9
489.401	25216.96
489.615	25244.92
489.83	25279.76
490.045	25322.3
490.259	25361.32
490.474	25393.88
490.688	25428.41
490.903	25460.45
491.117	25491.39
491.332	25521.54
491.546	25552.16
491.761	25584.61
491.975	25614.56
492.19	25641.07
492.404	25676.01
492.618	25711.67
492.833	25741.38
493.047	25774.36
493.262	25809.67
493.476	25846.76
493.69	25867.67
493.905	25897.63
494.119	25919.5
494.333	25949.25
494.547	25979.43
494.762	25990.48
494.976	26015.08
495.19	26037.38
495.404	26056.19
495.619	26084.81
495.833	26104.59
496.047	26135.76
496.261	26157.58
496.475	26187.1
496.689	26200.03
496.903	26209.67
497.117	26222.47
497.332	26217.16
497.546	26217.41
497.76	26212.54
497.974	26194.9
498.188	26179.5
498.402	26166.14
498.616	26152.18
498.83	26138.39
499.044	26137.56
499.258	26134.07
499.472	26135.83
499.685	26142.54
499.899	26154.61
500.113	26165.3
500.327	26177.32
500.541	26200.07
500.755	26214.41
500.969	26234.65
501.183	26255.18
501.396	26268.83
501.61	26283.3
501.824	26303.23
502.038	26320.98
502.251	26336.39
502.465	26354.36
502.679	26375.52
502.892	26390.43
503.106	26403.38
503.32	26419.81
503.533	26433.83
503.747	26454.63
503.961	26479.23
504.174	26500.28
504.388	26533.25
504.602	26565.01
504.815	26601.47
505.029	26633.7
505.242	26670.74
505.456	26714.98
505.669	26757.56
505.883	26811.7
506.096	26858.18
506.31	26907.38
506.523	26965.1
506.736	27015.36
506.95	27064.96
507.163	27117.85
507.377	27179.27
507.59	27237.18
507.803	27305.72
508.017	27373.74
508.23	27435.72
508.443	27499.41
508.657	27564.39
508.87	27622.85
509.083	27691.21
509.296	27763.07
509.51	27836.63
509.723	27910.3
509.936	27988.72
510.149	28061.28
510.363	28140.03
510.576	28223.1
510.789	28313.07
511.002	28407.47
511.215	28503.98
511.428	28603.25
511.641	28698.16
511.854	28803.27
512.067	28911.34
512.28	29021.72
512.493	29129.78
512.707	29237.85
512.92	29342.01
513.132	29447.01
513.345	29544.01
513.558	29649.72
513.771	29754.28
513.984	29863.43
514.197	29963.65
514.41	30061.41
514.623	30159.12
514.836	30264.43
515.049	30366.68
515.262	30462.85
515.474	30564.98
515.687	30672.61
515.9	30770.87
516.113	30868.45
516.325	30958.81
516.538	31051.14
516.751	31143.34
516.964	31235.1
517.176	31319.94
517.389	31402.68
517.602	31500.05
517.814	31580.81
518.027	31654.52
518.24	31728.27
518.452	31802.08
518.665	31880.3
518.877	31956.98
519.09	32028.45
519.303	32099.21
519.515	32172.36
519.728	32237.28
519.94	32290.7
520.153	32359.63
520.365	32430.12
520.578	32502.67
520.79	32566.76
521.002	32634.78
521.215	32694.36
521.427	32756.54
521.64	32823.47
521.852	32879.96
522.064	32945.03
522.277	32998.3
522.489	33048.38
522.701	33098.36
522.914	33141.98
523.126	33189.12
523.338	33225.01
523.551	33282.32
523.763	33323.28
523.975	33360.36
524.187	33402.32
524.399	33437.79
524.612	33492.65
524.824	33538.85
525.036	33582.47
525.248	33634.27
525.46	33677.7
525.672	33726.92
525.884	33756.05
526.096	33803.61
526.308	33836.68
526.521	33868.98
526.733	33906.54
526.945	33931.88
527.157	33959.03
527.369	33993.48
527.581	34020.87
527.793	34055.45
528.004	34080.03
528.216	34111.83
528.428	34139.21
528.64	34170.23
528.852	34196.92
529.064	34220.58
529.276	34243.47
529.488	34268.43
529.699	34295.18
529.911	34316.79
530.123	34335.52
530.335	34361.3
530.547	34393.81
530.758	34418.16
530.97	34447.85
531.182	34486.34
531.393	34525.7
531.605	34556.14
531.817	34597.34
532.029	34629.78
532.24	34661.14
532.452	34697.12
532.663	34720.28
532.875	34736.08
533.087	34755.68
533.298	34779.38
533.51	34794.05
533.721	34806.76
533.933	34834.63
534.144	34845.56
534.356	34866.67
534.567	34881.39
534.779	34895.1
534.99	34911.83
535.202	34932.16
535.413	34958.28
535.624	34967.87
535.836	34989.76
536.047	35010.14
536.259	35022.87
536.47	35044.01
536.681	35044.63
536.893	35054.61
537.104	35063.27
537.315	35088.45
537.526	35099.32
537.738	35103.47
537.949	35122.45
538.16	35131.12
538.371	35141.9
538.582	35154.63
538.794	35170.41
539.005	35193.81
539.216	35213.99
539.427	35233.85
539.638	35250.32
539.849	35265.68
540.06	35292.43
540.272	35304.87
540.483	35318.36
540.694	35339.1
540.905	35359.18
541.116	35367.94
541.327	35381.7
541.538	35385.25
541.749	35397.83
541.96	35398.52
542.17	35401.21
542.381	35400.28
542.592	35404.45
542.803	35419.18
543.014	35426.38
543.225	35418.18
543.436	35421.63
543.647	35423.52
543.857	35446.88
544.068	35449.61
544.279	35460.47
544.49	35472.21
544.701	35484.87
544.911	35496.83
545.122	35500.74
545.333	35507.03
545.543	35528.98
545.754	35541.81
545.965	35546.68
546.175	35547.79
546.386	35556.54
546.597	35562.5
546.807	35580.18
547.018	35578.56
547.229	35586.61
547.439	35589.59
547.65	35595.98
547.86	35591.28
548.071	35600.21
548.281	35607.28
548.492	35613.81
548.702	35625.25
548.913	35640.94
549.123	35639.94
549.333	35649.48
549.544	35661.67
549.754	35676.18
549.965	35684.05
550.175	35696.07
550.385	35703.14
550.596	35723.19
550.806	35732.92
551.016	35741.36
551.227	35738.25
551.437	35745.08
551.647	35761.08
551.857	35762.7
552.068	35772.01
552.278	35779.23
552.488	35793.1
552.698	35797.96
552.908	35790.94
553.119	35791.87
553.329	35785.94
553.539	35791.27
553.749	35782.65
553.959	35773.79
554.169	35772.98
554.379	35760.67
554.589	35752.83
554.799	35747.98
555.009	35740.87
555.219	35736.76
555.429	35741.39
555.639	35743.32
555.849	35731.28
556.059	35742.68
556.269	35734.08
556.479	35734.78
556.689	35742.01
556.899	35750.18
557.109	35749.39
557.319	35755.94
557.528	35762.7
557.738	35756.78
557.948	35754.21
558.158	35757.94
558.368	35742.56
558.577	35743.16
558.787	35733.61
558.997	35723.14
559.207	35708.3
559.416	35694.76
559.626	35676.92
559.836	35662.9
560.045	35648.94
560.255	35641.45
560.465	35642.61
560.674	35641.1
560.884	35642.07
561.093	35629.78
561.303	35625.67
561.512	35612.54
561.722	35607.21
561.932	35600.38
562.141	35592.16
562.351	35589.27
562.56	35581.19
562.769	35575.3
562.979	35567.01
563.188	35561.92
563.398	35567.05
563.607	35559.65
563.817	35560.43
564.026	35554.9
564.235	35547.67
564.445	35545.18
564.654	35537.67
564.863	35529.7
565.073	35513.12
565.282	35511.98
565.491	35498.18
565.7	35475.32
565.91	35458.21
566.119	35441.87
566.328	35417.99
566.537	35394.9
566.746	35379.47
566.956	35364.92
567.165	35353.81
567.374	35344.9
567.583	35325.3
567.792	35307.67
568.001	35302.39
568.21	35280.12
568.419	35255.58
568.628	35238.98
568.837	35223.79
569.046	35193.68
569.255	35155.5
569.464	35116.23
569.673	35080.12
569.882	35048.18
570.091	35025.92
570.3	34996.12
570.509	34979.25
570.718	34965.83
570.927	34950.83
571.135	34934.99
571.344	34933.21
571.553	34932.21
571.762	34930.74
571.971	34922.56
572.18	34915.79
572.388	34892.41
572.597	34871.85
572.806	34855.83
573.014	34830.79
573.223	34811.63
573.432	34781.81
573.641	34742.83
573.849	34715.52
574.058	34683.88
574.266	34665.41
574.475	34639.16
574.684	34614.1
574.892	34602.78
575.101	34580.83
575.309	34563.39
575.518	34536.88
575.726	34515.43
575.935	34501.59
576.143	34489.41
576.352	34465.79
576.56	34439.76
576.769	34416.83
576.977	34405.39
577.186	34373.67
577.394	34348.99
577.602	34327.27
577.811	34311.43
578.019	34297.58
578.228	34270.58
578.436	34233.7
578.644	34215.52
578.852	34187.23
579.061	34160.58
579.269	34127.54
579.477	34107.03
579.685	34091.61
579.894	34079.36
580.102	34055.36
580.31	34029.61
580.518	34016.25
580.726	34003.41
580.935	33983.61
581.143	33962.63
581.351	33942.32
581.559	33934.16
581.767	33908.32
581.975	33885.01
582.183	33852.34
582.391	33826.21
582.599	33817.32
582.807	33790.54
583.015	33764.41
583.223	33737.81
583.431	33717.54
583.639	33699.54
583.847	33668.92
584.055	33647.65
584.263	33617.5
584.471	33588.67
584.678	33563.87
584.886	33538.03
585.094	33516.43
585.302	33487.98
585.51	33464.03
585.718	33435.18
585.925	33407.08
586.133	33383.32
586.341	33364.07
586.549	33347.83
586.756	33332.79
586.964	33317.23
587.172	33279.39
587.379	33247.47
587.587	33223.85
587.795	33205.81
588.002	33186.65
588.21	33163.68
588.417	33131.68
588.625	33093.25
588.833	33061.05
589.04	33030.12
589.248	32998.98
589.455	32973.41
589.663	32951.63
589.87	32924.03
590.078	32887.85
590.285	32858.63
590.492	32827.25
590.7	32812.14
590.907	32789.94
591.115	32759.7
591.322	32724.05
591.529	32691.12
591.737	32672.3
591.944	32637.58
592.151	32609.07
592.359	32584.88
592.566	32549.41
592.773	32508.47
592.981	32466.68
593.188	32434.48
593.395	32410.19
593.602	32383.3
593.809	32355.7
594.017	32315.98
594.224	32294.34
594.431	32266.92
594.638	32236.34
594.845	32204.81
595.052	32184.98
595.259	32156.28
595.466	32134.61
595.673	32103.12
595.88	32088.1
596.088	32064.48
596.295	32036.21
596.502	32004.07
596.709	31972.59
596.915	31938.23
597.122	31914.61
597.329	31890.28
597.536	31865.32
597.743	31836.07
597.95	31807.74
598.157	31764.43
598.364	31720.81
598.571	31674.59
598.777	31622.56
598.984	31576.16
599.191	31521.56
599.398	31467.52
599.605	31415.36
599.811	31351.54
600.018	31291.88
600.225	31233.18
600.431	31175.94
600.638	31127.21
600.845	31095.34
601.052	31063.98
601.258	31028.81
601.465	30991.27
601.671	30938.36
601.878	30866.63
602.085	30792.14
602.291	30692.9
602.498	30570.85
602.704	30427.38
602.911	30269.41
603.117	30080.48
603.324	29877.18
603.53	29655.87
603.737	29418.21
603.943	29181.7
604.15	28936.54
604.356	28691.21
604.562	28440.56
604.769	28182.87
604.975	27936.79
605.181	27683.52
605.388	27433.87
605.594	27168.47
605.8	26907.99
606.007	26655.27
606.213	26392.45
606.419	26128.7
606.625	25853.72
606.832	25586.72
607.038	25325.48
607.244	25055.56
607.45	24792.58
607.656	24527.23
607.863	24266.61
608.069	24001.38
608.275	23732.68
608.481	23462.14
608.687	23195.78
608.893	22935.87
609.099	22664.68
609.305	22390.25
609.511	22117.39
609.717	21835.34
609.923	21551.5
610.129	21262.74
610.335	20969.65
610.541	20680.65
610.747	20388.32
610.953	20089.92
611.159	19791.98
611.365	19491.19
611.571	19188.3
611.776	18884.96
611.982	18575.54
612.188	18267.72
612.394	17962.39
612.6	17658.08
612.806	17351.25
613.011	17042.47
613.217	16730.41
613.423	16417.9
613.628	16113.72
613.834	15812.14
614.04	15511.08
614.246	15217.16
614.451	14928.96
614.657	14651.9
614.862	14382.45
615.068	14112.63
615.274	13849.1
615.479	13594.45
615.685	13344.45
615.89	13098.38
616.096	12857.01
616.301	12615.98
616.507	12371.32
616.712	12122.7
616.918	11870.43
617.123	11611.38
617.329	11354.78
617.534	11094.7
617.74	10829.5
617.945	10565.16
618.15	10287.54
618.356	9853.48
618.561	9061.25
618.766	8106.5
618.972	7120.88
619.177	6159.92
619.382	5222.83
619.588	4309.7
619.793	3766.65
619.998	3136.02
620.203	2373.24
620.408	1445.35
620.614	539.13
