Data from test1_MAYP1115451__59__10-17-28-982.txt Node

Date: Wed Jun 12 10:17:28 MDT 2024
User: Modes Lab
Spectrometer: MAYP111545
Trigger mode: 0
Integration Time (sec): 8.000000E-3
Scans to average: 5
Electric dark correction enabled: true
Nonlinearity correction enabled: false
Boxcar width: 5
XAxis mode: Wavelengths
Number of Pixels in Spectrum: 2068
>>>>>Begin Spectral Data<<<<<
165.214	166.13
165.449	166
165.683	174.38
165.918	181.89
166.152	188.54
166.387	193.87
166.621	125.45
166.856	163.29
167.09	181.73
167.325	204.65
167.559	220.38
167.794	234.13
168.028	241.56
168.263	243.44
168.497	244.13
168.732	244.84
168.966	245.45
169.2	246.35
169.435	248.36
169.669	249.89
169.903	252.65
170.138	255.07
170.372	256.98
170.606	258.8
170.841	259.55
171.075	260.51
171.309	261.35
171.544	263.13
171.778	265.18
172.012	267.07
172.246	269.22
172.48	269.82
172.715	271.49
172.949	273.18
173.183	274.64
173.417	277
173.651	279.33
173.885	280.65
174.119	281.62
174.354	282.29
174.588	282.42
174.822	282.18
175.056	282.27
175.29	281.73
175.524	281.15
175.758	281.65
175.992	281.75
176.226	282
176.46	282.33
176.694	282.67
176.928	283.44
177.162	284.25
177.396	284.8
177.63	286.85
177.864	288.8
178.097	289.98
178.331	290.2
178.565	290.62
178.799	291.91
179.033	293.35
179.267	293.96
179.5	294.49
179.734	295.16
179.968	296.73
180.202	296.91
180.436	297.11
180.669	298.25
180.903	299.42
181.137	300.62
181.371	301.6
181.604	302.18
181.838	303.31
182.072	304.71
182.305	306.73
182.539	307.64
182.772	309.13
183.006	309.78
183.24	311.09
183.473	314.6
183.707	316.13
183.94	316.25
184.174	318.55
184.408	320.51
184.641	321.07
184.875	321.67
185.108	322.73
185.342	323.55
185.575	324.85
185.808	326.38
186.042	325.04
186.275	325.22
186.509	326.56
186.742	327.09
186.976	327.45
187.209	328.82
187.442	329.78
187.676	331.2
187.909	331.78
188.142	332.45
188.376	332.8
188.609	334.05
188.842	335.44
189.076	336.22
189.309	338.4
189.542	339.87
189.775	342.13
190.009	344.2
190.242	345.96
190.475	348.84
190.708	351.09
190.941	352.91
191.174	354.98
191.408	357.22
191.641	359.45
191.874	359.82
192.107	362.89
192.34	364.07
192.573	365.25
192.806	367.13
193.039	368.65
193.272	371.82
193.505	373.82
193.738	376.07
193.971	377.38
194.204	379.78
194.437	382.27
194.67	383.49
194.903	385.91
195.136	388.47
195.369	390.44
195.602	391.27
195.835	393.2
196.068	395.49
196.301	397.87
196.533	400.69
196.766	401.95
196.999	404.13
197.232	406.44
197.465	407.67
197.698	408.62
197.93	410.35
198.163	412.69
198.396	413.45
198.629	415.51
198.861	415.51
199.094	417.29
199.327	419.85
199.559	421.45
199.792	422.76
200.025	425.98
200.257	428.93
200.49	430.76
200.723	433.85
200.955	436.76
201.188	439.05
201.42	442.75
201.653	445.15
201.886	447.58
202.118	450.18
202.351	452
202.583	454.07
202.816	456.38
203.048	458.44
203.281	460.56
203.513	462.78
203.745	464.75
203.978	466.31
204.21	468.58
204.443	469.85
204.675	470.55
204.907	473.47
205.14	476.11
205.372	478.33
205.605	481.4
205.837	482.64
206.069	484.65
206.302	487.44
206.534	490.62
206.766	492.24
206.998	494.82
207.231	498.05
207.463	500.69
207.695	502.36
207.927	504.22
208.159	506.25
208.392	507.96
208.624	509.6
208.856	512.13
209.088	512.98
209.32	516.24
209.552	518.78
209.784	521.11
210.017	521.55
210.249	523.51
210.481	525.58
210.713	527.49
210.945	530
211.177	531.75
211.409	532.36
211.641	534.47
211.873	535.29
212.105	538.02
212.337	539.78
212.569	543.13
212.801	544.96
213.033	546.78
213.264	548.05
213.496	550.29
213.728	552.11
213.96	554.27
214.192	556.18
214.424	557.91
214.656	559.07
214.887	561.67
215.119	563.69
215.351	565.35
215.583	567.47
215.815	569.76
216.046	571.95
216.278	574.09
216.51	575.67
216.741	577.58
216.973	580.62
217.205	582.42
217.436	583.89
217.668	584.71
217.9	585.25
218.131	586.09
218.363	587
218.595	587.56
218.826	587.8
219.058	587.96
219.289	590.04
219.521	589.04
219.752	590.04
219.984	590.6
220.215	591.87
220.447	593.04
220.678	593.56
220.91	594.96
221.141	595.91
221.373	598.11
221.604	600.71
221.836	601.44
222.067	603.6
222.298	604.29
222.53	604.33
222.761	604.85
222.993	606.2
223.224	609.05
223.455	609.89
223.686	610.51
223.918	612.25
224.149	613
224.38	613.16
224.612	613.15
224.843	614.87
225.074	616.55
225.305	617.42
225.536	617.73
225.768	615.93
225.999	616.09
226.23	618
226.461	616.49
226.692	616.8
226.923	616.75
227.155	620.09
227.386	619.73
227.617	619.65
227.848	619.8
228.079	620.82
228.31	622.95
228.541	624.27
228.772	622.64
229.003	624.18
229.234	624.58
229.465	624.82
229.696	622.75
229.927	622.53
230.158	623.71
230.389	624.44
230.62	623.82
230.85	623.44
231.081	621.8
231.312	623.22
231.543	622.2
231.774	621.89
232.005	623.2
232.236	623.13
232.466	622.73
232.697	622.33
232.928	621.62
233.159	622.18
233.389	621.95
233.62	622.82
233.851	622.93
234.082	623.05
234.312	623.13
234.543	622.07
234.774	622.98
235.004	622.84
235.235	622.64
235.466	621.71
235.696	621.67
235.927	622.38
236.157	621.91
236.388	620.96
236.618	621.96
236.849	621.65
237.08	621.56
237.31	620.56
237.541	620.78
237.771	619.38
238.002	620.51
238.232	619.47
238.463	619.09
238.693	619.69
238.923	619.82
239.154	618.6
239.384	618.24
239.615	618.31
239.845	617.67
240.075	618.04
240.306	618.87
240.536	618
240.766	618.64
240.997	617.56
241.227	615.8
241.457	615.62
241.687	614.8
241.918	613.76
242.148	613.05
242.378	612.87
242.608	612.15
242.839	612.09
243.069	611.75
243.299	610.53
243.529	611.87
243.759	612.2
243.989	611.36
244.22	611.65
244.45	612.22
244.68	612.18
244.91	610.91
245.14	610.18
245.37	608.6
245.6	607.85
245.83	607.64
246.06	605.49
246.29	605.65
246.52	604.49
246.75	603.13
246.98	602.49
247.21	601.67
247.44	601.62
247.67	600.24
247.9	600.24
248.13	600.4
248.359	600.45
248.589	600.38
248.819	599.04
249.049	599.07
249.279	598.96
249.509	597.87
249.738	597.6
249.968	596.49
250.198	596.04
250.428	595.15
250.657	594.27
250.887	593.11
251.117	592.35
251.347	591.76
251.576	591.55
251.806	590.93
252.036	591.25
252.265	590.71
252.495	590.89
252.725	590.87
252.954	591.31
253.184	589.71
253.413	589.93
253.643	588.95
253.873	588.87
254.102	588.15
254.332	587.07
254.561	585.45
254.791	584.15
255.02	583.11
255.25	583.67
255.479	581.89
255.708	582.18
255.938	580.75
256.167	578.62
256.397	576.95
256.626	576.22
256.856	576.29
257.085	575.4
257.314	575
257.544	575.58
257.773	574.4
258.002	573.69
258.232	573.18
258.461	573.95
258.69	575.24
258.919	574.55
259.149	573.93
259.378	573.73
259.607	573.51
259.836	573.76
260.065	572.22
260.295	571.31
260.524	570.49
260.753	568.05
260.982	565.82
261.211	564.84
261.44	565.18
261.669	564.53
261.899	563.35
262.128	562.24
262.357	561.05
262.586	560.6
262.815	559.62
263.044	559.49
263.273	563.4
263.502	563.36
263.731	561.13
263.96	559.76
264.189	558.49
264.418	558.09
264.646	556.22
264.875	554.8
265.104	553.95
265.333	552.33
265.562	551.93
265.791	548.96
266.02	547.51
266.249	547.71
266.477	546.58
266.706	546.78
266.935	545.65
267.164	545.98
267.393	546.24
267.621	545.44
267.85	545.38
268.079	545.42
268.307	543.91
268.536	543.69
268.765	544.13
268.993	543.93
269.222	543.51
269.451	542.35
269.679	541.36
269.908	541.58
270.137	541.29
270.365	541.35
270.594	538.8
270.822	539.22
271.051	539.25
271.279	537.58
271.508	538.25
271.736	537.16
271.965	538.93
272.193	540.42
272.422	539.73
272.65	540.73
272.879	539.62
273.107	539.47
273.336	539.04
273.564	537.95
273.792	536.96
274.021	535.25
274.249	535.55
274.477	533.36
274.706	531.71
274.934	529.84
275.162	527.55
275.391	527.96
275.619	528.84
275.847	526.2
276.075	525.18
276.304	525
276.532	525.16
276.76	523.15
276.988	522.27
277.216	522.27
277.445	520.69
277.673	519.44
277.901	518.49
278.129	516.36
278.357	516.91
278.585	516.76
278.813	516.55
279.041	515.53
279.269	516.51
279.497	515.93
279.725	515.93
279.954	515.8
280.182	516.24
280.41	515.4
280.637	515.18
280.865	513.49
281.093	512.53
281.321	511.82
281.549	511.6
281.777	511
282.005	511.13
282.233	510.42
282.461	511.53
282.689	510.15
282.916	509.96
283.144	509.6
283.372	510.31
283.6	509.89
283.828	509.24
284.055	508.75
284.283	506.6
284.511	506.36
284.739	504.55
284.966	503.64
285.194	504.05
285.422	502.62
285.649	502.6
285.877	501.65
286.105	501.51
286.332	502
286.56	501.31
286.788	502.05
287.015	501.82
287.243	501.82
287.47	500.33
287.698	499.25
287.925	499.67
288.153	498.8
288.381	499.36
288.608	500.13
288.836	498.78
289.063	499.15
289.29	498.44
289.518	497.67
289.745	497.87
289.973	496.87
290.2	496.95
290.428	496.2
290.655	494.85
290.882	493.76
291.11	491.67
291.337	491.49
291.564	488.89
291.792	488.15
292.019	486.84
292.246	485.53
292.473	485.04
292.701	484.29
292.928	483.09
293.155	483.49
293.382	483.18
293.61	482.24
293.837	481.91
294.064	481.64
294.291	480.02
294.518	480.13
294.745	480
294.972	479.78
295.2	479.04
295.427	479.16
295.654	478.33
295.881	477
296.108	476.53
296.335	475.49
296.562	475.36
296.789	475.25
297.016	474.24
297.243	473.69
297.47	473.98
297.697	472.51
297.924	471.35
298.151	469.98
298.378	468.18
298.604	468.4
298.831	468.07
299.058	467.51
299.285	466.91
299.512	466.27
299.739	465.69
299.966	465.22
300.192	465.47
300.419	465.65
300.646	466.25
300.873	466.85
301.099	466.65
301.326	465.47
301.553	465.67
301.78	467.42
302.006	466.45
302.233	465.36
302.46	464.11
302.686	463.64
302.913	463.53
303.14	462.62
303.366	461.93
303.593	460.47
303.819	461.15
304.046	459.96
304.272	458.62
304.499	458.07
304.725	459.16
304.952	458.31
305.179	458.35
305.405	457.42
305.631	457
305.858	458.67
306.084	459.45
306.311	458.62
306.537	458.04
306.764	456.67
306.99	458.09
307.216	456.85
307.443	457.33
307.669	457.45
307.895	456.56
308.122	456.96
308.348	455.38
308.574	455.62
308.801	455.6
309.027	456.67
309.253	458.2
309.479	456.24
309.706	456.2
309.932	456.16
310.158	455.65
310.384	456.58
310.61	456.22
310.837	455.93
311.063	455.96
311.289	455.75
311.515	455.29
311.741	453.45
311.967	454.69
312.193	454.13
312.419	454.07
312.645	452.67
312.871	451.4
313.097	452.27
313.323	452.51
313.549	451.35
313.775	451.69
314.001	451.65
314.227	453.11
314.453	453.18
314.679	453.65
314.905	454.09
315.131	456.09
315.357	456.73
315.583	456.31
315.809	457.15
316.034	458.16
316.26	459.18
316.486	459.51
316.712	459.47
316.938	459.27
317.163	459.67
317.389	459.75
317.615	460.53
317.841	461.22
318.066	461.09
318.292	460.95
318.518	459.58
318.743	460.2
318.969	461.25
319.195	462.02
319.42	462.55
319.646	463.64
319.872	464.31
320.097	463.98
320.323	465.53
320.548	467.11
320.774	469.64
320.999	470.71
321.225	471.91
321.45	473.49
321.676	474.44
321.901	476.04
322.127	475.62
322.352	477.53
322.578	479.15
322.803	479.95
323.029	480.71
323.254	479.6
323.479	481.65
323.705	481.82
323.93	483.07
324.155	484.45
324.381	486.13
324.606	489.25
324.831	490.95
325.057	492.85
325.282	496.09
325.507	499.07
325.732	501.98
325.958	505.24
326.183	507.73
326.408	509.22
326.633	511.75
326.858	514.4
327.084	516.95
327.309	518.27
327.534	520.09
327.759	521.15
327.984	524.07
328.209	527.82
328.434	530.49
328.659	533.98
328.884	538.24
329.109	542.15
329.334	545.51
329.559	549.33
329.784	552.96
330.009	557.42
330.234	562.35
330.459	565.24
330.684	568.2
330.909	571.73
331.134	575.67
331.359	579.31
331.584	582.69
331.809	585.96
332.034	589.93
332.259	594.31
332.483	598.4
332.708	601.95
332.933	606.75
333.158	611.56
333.383	616.71
333.607	620.98
333.832	624.98
334.057	629.13
334.282	635.27
334.506	639.76
334.731	645.35
334.956	650.25
335.18	655.44
335.405	661.45
335.63	667.78
335.854	673.29
336.079	678.85
336.303	685.95
336.528	692.75
336.753	697.62
336.977	704.18
337.202	710.51
337.426	716.71
337.651	724.93
337.875	730.73
338.1	737.15
338.324	742.95
338.549	750.64
338.773	756.35
338.997	764.53
339.222	771.93
339.446	777.45
339.671	784.56
339.895	793.55
340.119	799.87
340.344	807.38
340.568	814.07
340.792	821.64
341.017	829.11
341.241	835.78
341.465	842.47
341.689	850.64
341.914	859.31
342.138	866.31
342.362	873.47
342.586	881.93
342.811	890.42
343.035	899.36
343.259	906.91
343.483	914.6
343.707	925.11
343.931	934.75
344.155	943.87
344.38	953.4
344.604	963.24
344.828	971.4
345.052	979.42
345.276	988.35
345.5	997.38
345.724	1008.31
345.948	1019
346.172	1027.93
346.396	1036.2
346.62	1046.04
346.844	1056.44
347.068	1067.93
347.292	1079
347.515	1090
347.739	1100.91
347.963	1110.95
348.187	1120.38
348.411	1128.93
348.635	1139
348.859	1151.25
349.082	1161.85
349.306	1173.4
349.53	1182.98
349.754	1194.13
349.977	1203.85
350.201	1213.65
350.425	1224.62
350.649	1237
350.872	1251.44
351.096	1262.05
351.32	1271.95
351.543	1283.76
351.767	1294.22
351.99	1305.76
352.214	1315.09
352.438	1327.36
352.661	1338.02
352.885	1351.16
353.108	1360.76
353.332	1370.67
353.555	1383.56
353.779	1394.87
354.002	1404.45
354.226	1414.69
354.449	1427.47
354.673	1440.22
354.896	1453.27
355.12	1466.25
355.343	1476.07
355.566	1489.44
355.79	1501.38
356.013	1514.75
356.237	1528.87
356.46	1543.15
356.683	1556.75
356.907	1569.13
357.13	1581.84
357.353	1592.4
357.576	1605.15
357.8	1618.25
358.023	1629.8
358.246	1642.53
358.469	1655.09
358.693	1666.05
358.916	1678.29
359.139	1691.4
359.362	1704.24
359.585	1718.67
359.808	1731.15
360.031	1741.2
360.255	1754.67
360.478	1771.49
360.701	1783.25
360.924	1794.95
361.147	1808.73
361.37	1822.45
361.593	1834.91
361.816	1846.84
362.039	1858.55
362.262	1872.75
362.485	1890.04
362.708	1902.87
362.931	1915.75
363.154	1930.29
363.377	1945.22
363.599	1956.22
363.822	1968.58
364.045	1983.89
364.268	1996.91
364.491	2012.6
364.714	2027.64
364.936	2040.33
365.159	2055.55
365.382	2068.6
365.605	2083.6
365.828	2098.02
366.05	2115.33
366.273	2130.09
366.496	2144.04
366.718	2160.25
366.941	2173.4
367.164	2189.85
367.386	2206.11
367.609	2223.31
367.832	2238.35
368.054	2251.98
368.277	2267.96
368.5	2282.64
368.722	2298.4
368.945	2314.2
369.167	2330.22
369.39	2347.09
369.612	2361.87
369.835	2377.93
370.057	2393.22
370.28	2410.07
370.502	2428.31
370.725	2443.44
370.947	2461.07
371.169	2477.75
371.392	2495.07
371.614	2511.64
371.837	2527.87
372.059	2545.42
372.281	2563.42
372.504	2579.6
372.726	2596.29
372.948	2611.58
373.171	2629.09
373.393	2648.09
373.615	2667.31
373.837	2686.95
374.06	2705.98
374.282	2724.18
374.504	2740.27
374.726	2756.71
374.948	2775.04
375.17	2792.93
375.393	2812.58
375.615	2830.65
375.837	2851.22
376.059	2869.51
376.281	2886.49
376.503	2903.71
376.725	2924.25
376.947	2945
377.169	2964.84
377.391	2984.29
377.613	3005.96
377.835	3029.62
378.057	3050.91
378.279	3068.33
378.501	3092.85
378.723	3115.69
378.945	3139.09
379.167	3159.27
379.389	3181.02
379.611	3204.85
379.833	3229.27
380.054	3251.38
380.276	3272.07
380.498	3296.95
380.72	3324.47
380.942	3345.82
381.163	3367.44
381.385	3390.73
381.607	3417.27
381.829	3440.51
382.05	3465.51
382.272	3488.78
382.494	3512.64
382.716	3537.53
382.937	3562.36
383.159	3583.69
383.381	3607.87
383.602	3633.29
383.824	3660.89
384.045	3685.05
384.267	3710.25
384.488	3734.09
384.71	3759.55
384.932	3786.36
385.153	3813.75
385.375	3840.16
385.596	3865.02
385.818	3891.16
386.039	3919.27
386.261	3944.35
386.482	3972.89
386.703	4000.22
386.925	4029.67
387.146	4062.27
387.368	4093.22
387.589	4122.4
387.81	4150.47
388.032	4178.22
388.253	4209.42
388.474	4235.4
388.696	4265.05
388.917	4292.22
389.138	4327.76
389.359	4355.51
389.581	4381.04
389.802	4410.2
390.023	4435.87
390.244	4464.38
390.465	4496.96
390.687	4525.93
390.908	4559.2
391.129	4587.15
391.35	4618.58
391.571	4644.11
391.792	4674.55
392.013	4703.67
392.234	4733.84
392.455	4765.29
392.677	4797.65
392.898	4826.45
393.119	4859.16
393.34	4891.98
393.561	4923
393.782	4956.51
394.003	4988.71
394.223	5021.69
394.444	5054.73
394.665	5087.04
394.886	5121.07
395.107	5154.8
395.328	5188.02
395.549	5217
395.77	5250.16
395.99	5287.35
396.211	5320.69
396.432	5354.85
396.653	5388.45
396.874	5424.53
397.094	5457.91
397.315	5491.8
397.536	5524.47
397.757	5560.8
397.977	5599.22
398.198	5631.33
398.419	5660.78
398.639	5694.4
398.86	5728.31
399.081	5758.56
399.301	5790.65
399.522	5821.29
399.742	5852.67
399.963	5886.78
400.184	5919.53
400.404	5950.02
400.625	5986.16
400.845	6020.35
401.066	6052.65
401.286	6083.64
401.507	6119.56
401.727	6153.13
401.948	6189.27
402.168	6228.87
402.388	6261.38
402.609	6296.6
402.829	6332.76
403.05	6364.47
403.27	6402.44
403.49	6433.53
403.711	6473.6
403.931	6511.78
404.151	6547.98
404.372	6580.89
404.592	6614.11
404.812	6647.07
405.032	6680.53
405.253	6711.16
405.473	6746.07
405.693	6782.76
405.913	6822.51
406.133	6855.07
406.353	6891.71
406.574	6925.78
406.794	6961.31
407.014	6994.69
407.234	7035.58
407.454	7070.05
407.674	7106.89
407.894	7143.22
408.114	7174.71
408.334	7213.11
408.554	7247.47
408.774	7278.71
408.994	7313.82
409.214	7349.78
409.434	7384.51
409.654	7419.35
409.874	7461.55
410.094	7501.09
410.314	7538.49
410.534	7580.98
410.754	7615.04
410.974	7651.78
411.193	7692.71
411.413	7733.69
411.633	7773.15
411.853	7811.8
412.073	7849.87
412.292	7879.31
412.512	7917.58
412.732	7957.64
412.952	7993.69
413.171	8034.04
413.391	8076.96
413.611	8114.96
413.831	8156.11
414.05	8200.18
414.27	8248.22
414.489	8288.38
414.709	8340.15
414.929	8382.64
415.148	8421.35
415.368	8464.44
415.587	8509.24
415.807	8552.25
416.026	8596.64
416.246	8636.42
416.465	8675.93
416.685	8715.09
416.904	8759.31
417.124	8799.53
417.343	8843.64
417.563	8887.89
417.782	8932.98
418.002	8972.87
418.221	9015.15
418.44	9061.89
418.66	9110.02
418.879	9153
419.098	9198.62
419.318	9242.6
419.537	9284.87
419.756	9327.78
419.976	9375.33
420.195	9419.05
420.414	9463.98
420.633	9505.09
420.853	9545.27
421.072	9581.55
421.291	9630.24
421.51	9675.53
421.729	9719.75
421.948	9767.24
422.168	9812.67
422.387	9847.22
422.606	9890
422.825	9934.49
423.044	9981.69
423.263	10028.11
423.482	10075.35
423.701	10116.38
423.92	10158.09
424.139	10200.93
424.358	10245.02
424.577	10289
424.796	10343.58
425.015	10388.65
425.234	10434.67
425.453	10484.67
425.672	10536.4
425.891	10585.65
426.11	10633.13
426.328	10679.35
426.547	10728.44
426.766	10777.13
426.985	10823.02
427.204	10869.76
427.422	10917.76
427.641	10963.11
427.86	11009.69
428.079	11049.22
428.297	11094.76
428.516	11147.73
428.735	11192.75
428.954	11240.07
429.172	11283.53
429.391	11335.65
429.61	11385.96
429.828	11438.53
430.047	11490.11
430.265	11533.31
430.484	11579.78
430.703	11625.24
430.921	11673.62
431.14	11722.45
431.358	11770.95
431.577	11820.73
431.795	11865.42
432.014	11912.98
432.232	11959.55
432.451	12011.75
432.669	12057.42
432.887	12108.67
433.106	12157.84
433.324	12199.47
433.543	12247.69
433.761	12295.29
433.979	12342.95
434.198	12392.75
434.416	12434.33
434.634	12477.95
434.853	12515.05
435.071	12560.6
435.289	12605.56
435.507	12651
435.726	12699.27
435.944	12748.13
436.162	12793.75
436.38	12837.93
436.598	12881.18
436.817	12928.98
437.035	12973.82
437.253	13021.93
437.471	13072.95
437.689	13119.67
437.907	13174.47
438.125	13218.51
438.343	13267.84
438.561	13325.11
438.78	13371.27
438.998	13419.15
439.216	13466.55
439.434	13510.51
439.652	13561.49
439.869	13606.91
440.087	13652.38
440.305	13694.51
440.523	13744
440.741	13786.53
440.959	13825.87
441.177	13880.38
441.395	13928.87
441.613	13981.51
441.831	14033.22
442.048	14078.85
442.266	14131.25
442.484	14175.42
442.702	14222.82
442.919	14273.29
443.137	14327.04
443.355	14377.07
443.573	14420.24
443.79	14473.56
444.008	14519.07
444.226	14565.2
444.443	14616.02
444.661	14661.35
444.879	14715.05
445.096	14769.76
445.314	14820.82
445.532	14863.22
445.749	14907.82
445.967	14958.15
446.184	14999.76
446.402	15046.05
446.619	15092.11
446.837	15135.07
447.054	15186.15
447.272	15234.25
447.489	15272.96
447.707	15320.09
447.924	15370.56
448.141	15420.8
448.359	15465.27
448.576	15511.15
448.794	15561.56
449.011	15621.24
449.228	15675.64
449.446	15721.87
449.663	15770.96
449.88	15822.69
450.098	15866.18
450.315	15915.15
450.532	15963.91
450.749	16012.62
450.967	16064.36
451.184	16110.47
451.401	16150.51
451.618	16194.45
451.835	16240.82
452.052	16283.93
452.27	16329.49
452.487	16374.98
452.704	16423.58
452.921	16466
453.138	16519.6
453.355	16563.96
453.572	16611.96
453.789	16664.16
454.006	16719.42
454.223	16771.4
454.44	16821.53
454.657	16870.6
454.874	16918.87
455.091	16966.4
455.308	17015.18
455.525	17055.87
455.742	17106.55
455.959	17151.6
456.176	17194.49
456.393	17231.16
456.609	17274.38
456.826	17322.13
457.043	17372.07
457.26	17422.38
457.477	17467.73
457.693	17515.58
457.91	17565.82
458.127	17610.58
458.344	17657.4
458.56	17699.56
458.777	17744.16
458.994	17786.53
459.21	17833.65
459.427	17865.65
459.644	17896.44
459.86	17927.2
460.077	17963.15
460.294	17990.78
460.51	18027.71
460.727	18060
460.943	18097.18
461.16	18128.96
461.376	18166.27
461.593	18197.64
461.809	18234.89
462.026	18280.44
462.242	18323.96
462.459	18362.29
462.675	18407.73
462.892	18447.15
463.108	18488.55
463.324	18524.4
463.541	18566.65
463.757	18609.27
463.974	18653.58
464.19	18701.51
464.406	18747.18
464.623	18800.75
464.839	18849.62
465.055	18894.38
465.271	18940.67
465.488	18987.05
465.704	19040.47
465.92	19092.98
466.136	19140.84
466.353	19188.09
466.569	19241.47
466.785	19290.36
467.001	19332.55
467.217	19381.85
467.433	19435.4
467.649	19491.24
467.865	19545.93
468.082	19601.95
468.298	19668.16
468.514	19731
468.73	19791.91
468.946	19853.8
469.162	19920.31
469.378	19989.71
469.594	20052.93
469.81	20118.2
470.026	20185.02
470.242	20250
470.457	20321
470.673	20381.29
470.889	20446.8
471.105	20513.67
471.321	20581.04
471.537	20653.18
471.753	20718.56
471.968	20790.56
472.184	20861.25
472.4	20931.25
472.616	21007.65
472.832	21086.07
473.047	21159.84
473.263	21227.4
473.479	21309.56
473.694	21383.56
473.91	21443.4
474.126	21517.78
474.341	21598.25
474.557	21673.84
474.773	21731.15
474.988	21802
475.204	21878.6
475.42	21946.11
475.635	22021.51
475.851	22089.44
476.066	22158.98
476.282	22237.67
476.497	22303.62
476.713	22362
476.928	22430.04
477.144	22504.04
477.359	22572.55
477.575	22625.71
477.79	22691.35
478.005	22757.38
478.221	22812.55
478.436	22873.2
478.651	22926.95
478.867	22985.84
479.082	23050.49
479.297	23106.4
479.513	23167.51
479.728	23220.69
479.943	23268
480.159	23318.4
480.374	23368.62
480.589	23421.98
480.804	23471.55
481.019	23523.98
481.235	23575.42
481.45	23617.11
481.665	23658.49
481.88	23712.22
482.095	23760
482.31	23816.53
482.525	23871.62
482.741	23921.38
482.956	23966.4
483.171	24021.69
483.386	24074.45
483.601	24120.93
483.816	24166.95
484.031	24214.36
484.246	24254.95
484.461	24299.18
484.676	24336.18
484.891	24375.38
485.105	24411.27
485.32	24455.49
485.535	24490.87
485.75	24528.02
485.965	24573.15
486.18	24616.42
486.395	24662.07
486.609	24707.27
486.824	24753.27
487.039	24801.22
487.254	24843.75
487.469	24886.82
487.683	24927.36
487.898	24968.98
488.113	25006.27
488.327	25043.15
488.542	25089.76
488.757	25131.96
488.972	25168.27
489.186	25200.02
489.401	25243.04
489.615	25278.95
489.83	25315.91
490.045	25347.93
490.259	25377.64
490.474	25412.58
490.688	25437.56
490.903	25459.58
491.117	25481.87
491.332	25507.73
491.546	25538.93
491.761	25562.6
491.975	25593.62
492.19	25624.84
492.404	25657.4
492.618	25688.27
492.833	25720.38
493.047	25760.35
493.262	25798.78
493.476	25826.4
493.69	25857.04
493.905	25886.09
494.119	25910.05
494.333	25937.93
494.547	25969.27
494.762	26001.27
494.976	26036.76
495.19	26064.36
495.404	26084.11
495.619	26105.31
495.833	26134.38
496.047	26156.02
496.261	26180.78
496.475	26192.36
496.689	26209.6
496.903	26215.73
497.117	26219.31
497.332	26213.53
497.546	26205.49
497.76	26203.31
497.974	26195.6
498.188	26191.27
498.402	26183.55
498.616	26171.76
498.83	26169.85
499.044	26156.42
499.258	26147.6
499.472	26150.49
499.685	26157.93
499.899	26160.85
500.113	26164.31
500.327	26167.51
500.541	26178.51
500.755	26198.22
500.969	26214.71
501.183	26236.71
501.396	26257.22
501.61	26278.4
501.824	26291.25
502.038	26304.36
502.251	26325.91
502.465	26347.87
502.679	26370.98
502.892	26389.93
503.106	26401.69
503.32	26415.11
503.533	26433.11
503.747	26452.24
503.961	26471.45
504.174	26497.69
504.388	26529.42
504.602	26558.71
504.815	26595.11
505.029	26637.67
505.242	26678.96
505.456	26718.82
505.669	26771.15
505.883	26816.65
506.096	26872.96
506.31	26942.87
506.523	26994.45
506.736	27041.33
506.95	27098.42
507.163	27148.22
507.377	27198.27
507.59	27252.36
507.803	27319.71
508.017	27377.16
508.23	27444.75
508.443	27507.87
508.657	27558.44
508.87	27623.4
509.083	27696.22
509.296	27772.49
509.51	27851.24
509.723	27922.6
509.936	28007.58
510.149	28088.4
510.363	28173.45
510.576	28257.02
510.789	28348.62
511.002	28442.2
511.215	28538.65
511.428	28645.55
511.641	28741.76
511.854	28835.53
512.067	28946.33
512.28	29038.78
512.493	29139.73
512.707	29241.76
512.92	29343.07
513.132	29436.58
513.345	29533.38
513.558	29637.04
513.771	29728.56
513.984	29828.05
514.197	29941.02
514.41	30050.38
514.623	30159.91
514.836	30266.04
515.049	30372.22
515.262	30472.36
515.474	30572.95
515.687	30681.51
515.9	30781.25
516.113	30881.09
516.325	30972.53
516.538	31059.27
516.751	31146.11
516.964	31232.55
517.176	31319.25
517.389	31405.07
517.602	31494.96
517.814	31587.2
518.027	31667.95
518.24	31748.71
518.452	31827.93
518.665	31918.31
518.877	32001
519.09	32074.76
519.303	32143.33
519.515	32208.82
519.728	32272.07
519.94	32332.2
520.153	32391.07
520.365	32455.4
520.578	32520.98
520.79	32589.45
521.002	32647.24
521.215	32705.05
521.427	32768.87
521.64	32829.91
521.852	32888.18
522.064	32931
522.277	32989.65
522.489	33038.67
522.701	33093.98
522.914	33142.58
523.126	33187.85
523.338	33224.15
523.551	33271.35
523.763	33310.82
523.975	33360.91
524.187	33408
524.399	33465.27
524.612	33508.58
524.824	33556.93
525.036	33593.36
525.248	33636.51
525.46	33675.24
525.672	33724.36
525.884	33759.25
526.096	33795.44
526.308	33825.96
526.521	33862.27
526.733	33888.51
526.945	33910.75
527.157	33943.45
527.369	33973.69
527.581	34001.6
527.793	34032.09
528.004	34059.36
528.216	34102.04
528.428	34136.13
528.64	34166.31
528.852	34200.24
529.064	34242.58
529.276	34280.13
529.488	34303.27
529.699	34338.8
529.911	34365.96
530.123	34390.73
530.335	34417.49
530.547	34435.22
530.758	34457.36
530.97	34490.15
531.182	34517.27
531.393	34545.84
531.605	34585.98
531.817	34625.04
532.029	34643.51
532.24	34670.56
532.452	34697.4
532.663	34723.49
532.875	34738.25
533.087	34759.22
533.298	34773.73
533.51	34789.47
533.721	34808.07
533.933	34821.45
534.144	34834.78
534.356	34859.2
534.567	34880.15
534.779	34907.47
534.99	34924.62
535.202	34953.27
535.413	34973.13
535.624	34998.93
535.836	35016.53
536.047	35029.25
536.259	35040.65
536.47	35052.69
536.681	35059.33
536.893	35070.27
537.104	35073.13
537.315	35093.09
537.526	35103.09
537.738	35120.36
537.949	35143.38
538.16	35160.22
538.371	35180.2
538.582	35202.6
538.794	35219.29
539.005	35242.02
539.216	35257.6
539.427	35273.56
539.638	35290.09
539.849	35311.25
540.06	35323.51
540.272	35329.18
540.483	35340.15
540.694	35349.33
540.905	35356.22
541.116	35374.58
541.327	35387.31
541.538	35387.47
541.749	35395.58
541.96	35407.56
542.17	35413.29
542.381	35426.44
542.592	35432.36
542.803	35440.95
543.014	35446.2
543.225	35443.4
543.436	35442.24
543.647	35447.67
543.857	35464.15
544.068	35470.95
544.279	35469.38
544.49	35476.36
544.701	35475.24
544.911	35483.51
545.122	35491.15
545.333	35501.4
545.543	35522.73
545.754	35541.31
545.965	35545.22
546.175	35560.75
546.386	35571.15
546.597	35579.47
546.807	35593.2
547.018	35606.4
547.229	35606.91
547.439	35613.82
547.65	35619.25
547.86	35617.51
548.071	35613.6
548.281	35615.64
548.492	35619.31
548.702	35633.49
548.913	35636.96
549.123	35638.75
549.333	35647.53
549.544	35662.96
549.754	35661.05
549.965	35677.29
550.175	35690.76
550.385	35713.65
550.596	35731.55
550.806	35746.78
551.016	35744.78
551.227	35753.93
551.437	35752.25
551.647	35759.56
551.857	35766.09
552.068	35786.53
552.278	35785.36
552.488	35792.4
552.698	35778.15
552.908	35793.2
553.119	35788.07
553.329	35794.38
553.539	35799.22
553.749	35793.85
553.959	35787.05
554.169	35783.87
554.379	35770.91
554.589	35772.07
554.799	35773.38
555.009	35776.84
555.219	35758.91
555.429	35756.36
555.639	35749.25
555.849	35751.67
556.059	35758.55
556.269	35753.18
556.479	35742.84
556.689	35750.45
556.899	35748.8
557.109	35743.22
557.319	35741.29
557.528	35744.05
557.738	35741.55
557.948	35735.76
558.158	35727.8
558.368	35721.35
558.577	35726.49
558.787	35727.62
558.997	35718.84
559.207	35707.11
559.416	35698.29
559.626	35697.16
559.836	35680.84
560.045	35679.62
560.255	35685.33
560.465	35680.56
560.674	35670.36
560.884	35651.11
561.093	35645.22
561.303	35639.2
561.512	35627.84
561.722	35620.49
561.932	35606.87
562.141	35601.36
562.351	35581.15
562.56	35568.42
562.769	35561.53
562.979	35568.73
563.188	35576.11
563.398	35564.22
563.607	35563.58
563.817	35573.18
564.026	35571.65
564.235	35559.07
564.445	35552.65
564.654	35549.75
564.863	35534.6
565.073	35518.16
565.282	35489.65
565.491	35466.36
565.7	35455.27
565.91	35432.47
566.119	35405.85
566.328	35376.49
566.537	35364.93
566.746	35354.36
566.956	35342.05
567.165	35340.16
567.374	35325.89
567.583	35329.53
567.792	35324.13
568.001	35316.04
568.21	35296.22
568.419	35276.29
568.628	35250.91
568.837	35227.05
569.046	35193.02
569.255	35164.02
569.464	35130.15
569.673	35099.45
569.882	35063.6
570.091	35035.75
570.3	35001.71
570.509	34976.22
570.718	34964.16
570.927	34955.16
571.135	34935.02
571.344	34931.96
571.553	34928.27
571.762	34919.93
571.971	34909.56
572.18	34894.05
572.388	34872.64
572.597	34861.24
572.806	34845.73
573.014	34823.71
573.223	34803.38
573.432	34784.76
573.641	34758.91
573.849	34720.16
574.058	34693.78
574.266	34668.84
574.475	34648.71
574.684	34630.31
574.892	34607.65
575.101	34595.15
575.309	34570.55
575.518	34558.45
575.726	34539.65
575.935	34520.09
576.143	34512.58
576.352	34487.93
576.56	34476.76
576.769	34460.27
576.977	34444.78
577.186	34424.71
577.394	34398.69
577.602	34374.29
577.811	34349.89
578.019	34328.05
578.228	34309.53
578.436	34279.56
578.644	34263.8
578.852	34230.98
579.061	34199.07
579.269	34170
579.477	34145.09
579.685	34122.78
579.894	34109.93
580.102	34081.22
580.31	34054.45
580.518	34031.05
580.726	34014.2
580.935	33991.35
581.143	33968.98
581.351	33953.82
581.559	33937.8
581.767	33913.89
581.975	33888.85
582.183	33858.22
582.391	33840.49
582.599	33828.05
582.807	33804.25
583.015	33774.31
583.223	33747.62
583.431	33726.93
583.639	33702.53
583.847	33677.84
584.055	33659.91
584.263	33641.22
584.471	33612.95
584.678	33584.05
584.886	33556.13
585.094	33530
585.302	33515.53
585.51	33499.67
585.718	33474.67
585.925	33454.38
586.133	33427.2
586.341	33401.36
586.549	33377.29
586.756	33356.07
586.964	33335.49
587.172	33312.95
587.379	33285.33
587.587	33244.56
587.795	33201.62
588.002	33183.35
588.21	33148.58
588.417	33113.49
588.625	33080.96
588.833	33050.87
589.04	33019.96
589.248	32988.2
589.455	32971.27
589.663	32946.53
589.87	32923.69
590.078	32906.58
590.285	32874.55
590.492	32856.02
590.7	32835.22
590.907	32814.07
591.115	32783.67
591.322	32761.49
591.529	32734.58
591.737	32690.89
591.944	32668.76
592.151	32644.11
592.359	32606.49
592.566	32574.35
592.773	32531.35
592.981	32496.89
593.188	32453.96
593.395	32423.24
593.602	32396.51
593.809	32366.13
594.017	32338
594.224	32295.55
594.431	32266.64
594.638	32241.78
594.845	32212.09
595.052	32184.76
595.259	32159.33
595.466	32137.56
595.673	32117.58
595.88	32090.31
596.088	32058.78
596.295	32027.8
596.502	32005.27
596.709	31979.73
596.915	31954.44
597.122	31929.75
597.329	31901.44
597.536	31873.31
597.743	31844.47
597.95	31803.02
598.157	31765.29
598.364	31732.04
598.571	31694.02
598.777	31637.47
598.984	31576.09
599.191	31514.87
599.398	31459.89
599.605	31407.15
599.811	31357.45
600.018	31301.27
600.225	31245.65
600.431	31194.27
600.638	31148.44
600.845	31110.51
601.052	31083.07
601.258	31048.18
601.465	31004.69
601.671	30946.04
601.878	30884.02
602.085	30796.6
602.291	30690.15
602.498	30569.89
602.704	30431.91
602.911	30265.4
603.117	30079.15
603.324	29878.33
603.53	29665.62
603.737	29438.47
603.943	29204.55
604.15	28955.31
604.356	28706.75
604.562	28463.51
604.769	28204.76
604.975	27943.25
605.181	27690.22
605.388	27438.05
605.594	27175.25
605.8	26913.96
606.007	26654.24
606.213	26396.22
606.419	26132.91
606.625	25863.33
606.832	25598.11
607.038	25341.65
607.244	25077.25
607.45	24809.38
607.656	24532.65
607.863	24265.25
608.069	23991
608.275	23724.49
608.481	23457.53
608.687	23193.64
608.893	22925.33
609.099	22653.42
609.305	22381.27
609.511	22109.16
609.717	21839.87
609.923	21558.45
610.129	21276.36
610.335	20991.85
610.541	20697.95
610.747	20392.93
610.953	20094.2
611.159	19793.67
611.365	19491.98
611.571	19184.55
611.776	18878.44
611.982	18567.05
612.188	18268.53
612.394	17955.89
612.6	17647.64
612.806	17341.4
613.011	17038.4
613.217	16728.4
613.423	16423.62
613.628	16122.18
613.834	15822.89
614.04	15524.76
614.246	15228.64
614.451	14941.47
614.657	14667.27
614.862	14395.09
615.068	14130.56
615.274	13864.87
615.479	13614.35
615.685	13363.71
615.89	13116.35
616.096	12870.29
616.301	12629.44
616.507	12381.07
616.712	12129.13
616.918	11877.55
617.123	11624.89
617.329	11369.38
617.534	11112.53
617.74	10841.35
617.945	10574.82
618.15	10290.07
618.356	9855.6
618.561	9058.85
618.766	8105.75
618.972	7118.53
619.177	6155.51
619.382	5217.31
619.588	4301.16
619.793	3755.3
619.998	3122.22
620.203	2361.03
620.408	1440.97
620.614	538.47
