Data from test1_MAYP1115451__96__10-17-42-879.txt Node

Date: Wed Jun 12 10:17:42 MDT 2024
User: Modes Lab
Spectrometer: MAYP111545
Trigger mode: 0
Integration Time (sec): 8.000000E-3
Scans to average: 5
Electric dark correction enabled: true
Nonlinearity correction enabled: false
Boxcar width: 5
XAxis mode: Wavelengths
Number of Pixels in Spectrum: 2068
>>>>>Begin Spectral Data<<<<<
165.214	162.23
165.449	162.23
165.683	172.22
165.918	181.42
166.152	187.68
166.387	192.87
166.621	124.53
166.856	163.2
167.09	181.95
167.325	204.75
167.559	221.95
167.794	236.22
168.028	243.65
168.263	244.45
168.497	243.45
168.732	243.69
168.966	244.62
169.2	246.44
169.435	247.67
169.669	249.8
169.903	251.96
170.138	253.18
170.372	254.11
170.606	255.91
170.841	257.18
171.075	258.4
171.309	260.84
171.544	262.36
171.778	264.16
172.012	266.05
172.246	267.02
172.48	269.29
172.715	270.78
172.949	274.11
173.183	276.05
173.417	277.33
173.651	279.53
173.885	280.44
174.119	281.55
174.354	282.11
174.588	282.18
174.822	282.8
175.056	282.05
175.29	281.2
175.524	279.24
175.758	279.4
175.992	280.64
176.226	280.6
176.46	280.53
176.694	281.31
176.928	282
177.162	283.24
177.396	283.18
177.63	284.73
177.864	287.44
178.097	289.6
178.331	290.09
178.565	289.84
178.799	291.82
179.033	293.13
179.267	293.55
179.5	294.44
179.734	295.38
179.968	297.58
180.202	298.38
180.436	298.07
180.669	299.42
180.903	301.44
181.137	302.73
181.371	303
181.604	303.49
181.838	303.82
182.072	303.62
182.305	305.36
182.539	305.69
182.772	306.62
183.006	307.38
183.24	307.15
183.473	309.75
183.707	311.73
183.94	313.38
184.174	314.6
184.408	317.33
184.641	319.22
184.875	319.45
185.108	320.24
185.342	322.13
185.575	324.56
185.808	326.42
186.042	325.4
186.275	325.45
186.509	326.47
186.742	328.85
186.976	329.56
187.209	330.76
187.442	331.49
187.676	333.13
187.909	333.38
188.142	334.11
188.376	334.69
188.609	334.91
188.842	336.62
189.076	337.89
189.309	338.76
189.542	340.18
189.775	342.75
190.009	346.27
190.242	349.25
190.475	351.24
190.708	353.05
190.941	356.13
191.174	359.31
191.408	360.15
191.641	361.47
191.874	362.93
192.107	364.96
192.34	366.58
192.573	366.33
192.806	366.11
193.039	367.22
193.272	369.04
193.505	370.51
193.738	371.64
193.971	374.64
194.204	376.87
194.437	378.93
194.67	380.58
194.903	382.07
195.136	384.38
195.369	387.4
195.602	389.4
195.835	392.04
196.068	394.38
196.301	396.82
196.533	398.49
196.766	400.13
196.999	402.11
197.232	403.56
197.465	404.27
197.698	406.62
197.93	409.15
198.163	411.42
198.396	412.49
198.629	413.6
198.861	414.65
199.094	417.11
199.327	419.29
199.559	421.04
199.792	422.67
200.025	424.93
200.257	427.27
200.49	428.85
200.723	430.78
200.955	432.02
201.188	434.78
201.42	438.89
201.653	441.05
201.886	444.18
202.118	446.35
202.351	450.11
202.583	454.95
202.816	456.82
203.048	459.36
203.281	461.2
203.513	465.47
203.745	468.49
203.978	469.69
204.21	471.75
204.443	473.35
204.675	475.22
204.907	476.09
205.14	475.96
205.372	477.96
205.605	479.75
205.837	483.33
206.069	484.49
206.302	485.15
206.534	486.4
206.766	488.71
206.998	491.45
207.231	493.64
207.463	495.55
207.695	498.38
207.927	501.35
208.159	503.75
208.392	505.71
208.624	507.95
208.856	510.31
209.088	513.69
209.32	515.51
209.552	516.04
209.784	519.18
210.017	521.78
210.249	524.56
210.481	526.11
210.713	526.91
210.945	528.51
211.177	530.93
211.409	532.96
211.641	533.16
211.873	534.76
212.105	536.96
212.337	539.13
212.569	541.45
212.801	542.8
213.033	544.55
213.264	547.49
213.496	549.25
213.728	550.65
213.96	552.98
214.192	555.53
214.424	557.8
214.656	560.75
214.887	562.69
215.119	564.64
215.351	566.16
215.583	567.95
215.815	570.15
216.046	572.58
216.278	573.98
216.51	574.89
216.741	576.53
216.973	578.31
217.205	579.6
217.436	580.75
217.668	583.24
217.9	585.13
218.131	585.95
218.363	586.67
218.595	587.95
218.826	589.64
219.058	591.64
219.289	594
219.521	594.58
219.752	595.15
219.984	594.78
220.215	594.56
220.447	595.33
220.678	596.84
220.91	598.58
221.141	598.62
221.373	600.27
221.604	602.11
221.836	602.91
222.067	603.98
222.298	605.69
222.53	608.47
222.761	609.87
222.993	611.69
223.224	611.78
223.455	612.71
223.686	613.65
223.918	613.6
224.149	614.33
224.38	614.65
224.612	614.93
224.843	615.55
225.074	616.82
225.305	617.62
225.536	618.29
225.768	620.95
225.999	620.65
226.23	622.11
226.461	623.05
226.692	621.82
226.923	622.67
227.155	626.13
227.386	625.65
227.617	625.27
227.848	625.38
228.079	625.56
228.31	624.02
228.541	625.55
228.772	625.95
229.003	625.35
229.234	626.51
229.465	627.29
229.696	625.53
229.927	625.64
230.158	625.29
230.389	624.11
230.62	622.96
230.85	623.64
231.081	622.53
231.312	623.95
231.543	624.87
231.774	623.85
232.005	622.76
232.236	621.98
232.466	622.62
232.697	621.58
232.928	622.95
233.159	623.51
233.389	623.78
233.62	623.09
233.851	621.27
234.082	621.51
234.312	622.15
234.543	621.38
234.774	621.25
235.004	620.96
235.235	621.64
235.466	620.18
235.696	620.82
235.927	620.53
236.157	621.64
236.388	620.87
236.618	620.45
236.849	619.47
237.08	620
237.31	620.13
237.541	619.65
237.771	618.4
238.002	618.82
238.232	617.29
238.463	616.91
238.693	616.84
238.923	617.2
239.154	616.87
239.384	617.29
239.615	616.56
239.845	616
240.075	616.65
240.306	616.78
240.536	615.73
240.766	616.58
240.997	616.2
241.227	614.49
241.457	613.51
241.687	612.85
241.918	612.36
242.148	612.95
242.378	614.35
242.608	613.31
242.839	613.8
243.069	613.62
243.299	612
243.529	612.85
243.759	613.31
243.989	613.38
244.22	613.29
244.45	612.44
244.68	611.42
244.91	610.07
245.14	609.67
245.37	608.07
245.6	608.07
245.83	608.15
246.06	606.35
246.29	605.22
246.52	604.69
246.75	604.07
246.98	604.49
247.21	602.69
247.44	601.87
247.67	601.25
247.9	601.13
248.13	600.78
248.359	601.25
248.589	599.85
248.819	599.49
249.049	598.82
249.279	597.58
249.509	596.73
249.738	598.2
249.968	597.6
250.198	596.62
250.428	595.62
250.657	594.42
250.887	593
251.117	593.35
251.347	593.15
251.576	592.53
251.806	593.25
252.036	591.42
252.265	590.76
252.495	589.64
252.725	588.89
252.954	590.13
253.184	590.09
253.413	588.84
253.643	588.35
253.873	587.96
254.102	586.47
254.332	585.76
254.561	587.76
254.791	586.2
255.02	585.78
255.25	584.84
255.479	583.85
255.708	582.84
255.938	582.98
256.167	581.84
256.397	580.42
256.626	581.2
256.856	579.93
257.085	578.18
257.314	577.85
257.544	577.18
257.773	576.71
258.002	575.91
258.232	575.62
258.461	573.85
258.69	573.8
258.919	573.73
259.149	572.91
259.378	572.96
259.607	571.42
259.836	571.07
260.065	570.15
260.295	569.65
260.524	569.31
260.753	568.84
260.982	568.75
261.211	568.55
261.44	567.62
261.669	566.09
261.899	564.09
262.128	563.35
262.357	563.38
262.586	562.67
262.815	562.25
263.044	559.27
263.273	562
263.502	561.22
263.731	560.78
263.96	559.62
264.189	558.82
264.418	558.22
264.646	558.45
264.875	556.95
265.104	556.35
265.333	555.62
265.562	555.93
265.791	551.04
266.02	549.82
266.249	547.75
266.477	545.76
266.706	544.58
266.935	543.35
267.164	542.64
267.393	540.91
267.621	540.56
267.85	540
268.079	540.29
268.307	541.04
268.536	541.04
268.765	541.15
268.993	542.51
269.222	543.16
269.451	543.95
269.679	542.89
269.908	543.67
270.137	542.98
270.365	542.85
270.594	541.85
270.822	540.82
271.051	540.44
271.279	540.65
271.508	540.53
271.736	541
271.965	540.56
272.193	540.45
272.422	540.69
272.65	541.73
272.879	541.67
273.107	541.47
273.336	539.85
273.564	539.15
273.792	538.78
274.021	537.36
274.249	535.96
274.477	534.47
274.706	533.47
274.934	531.25
275.162	529.16
275.391	527.56
275.619	526.07
275.847	526.56
276.075	526.04
276.304	524.95
276.532	525.29
276.76	523.13
276.988	523.13
277.216	522.11
277.445	521.36
277.673	520.05
277.901	519.65
278.129	520.15
278.357	519.42
278.585	519.33
278.813	518.22
279.041	516.36
279.269	517.25
279.497	516.27
279.725	516.18
279.954	515.87
280.182	516.67
280.41	516
280.637	515.2
280.865	514.33
281.093	513.58
281.321	513.35
281.549	512.51
281.777	510.98
282.005	510.76
282.233	510.95
282.461	511.58
282.689	509.49
282.916	509.44
283.144	508.56
283.372	508.47
283.6	507.24
283.828	506.13
284.055	505.33
284.283	505.62
284.511	504.87
284.739	502.93
284.966	501.05
285.194	501.36
285.422	500.89
285.649	500.53
285.877	499.29
286.105	499.84
286.332	499.58
286.56	500.93
286.788	499.82
287.015	498.69
287.243	499.6
287.47	499.87
287.698	498.91
287.925	498.75
288.153	498.18
288.381	498
288.608	497.73
288.836	496.84
289.063	495.8
289.29	494.87
289.518	494.27
289.745	493.69
289.973	493.85
290.2	494
290.428	492.93
290.655	492.05
290.882	491.09
291.11	489.49
291.337	488.4
291.564	487.36
291.792	487.45
292.019	486.38
292.246	485.69
292.473	483
292.701	482.02
292.928	481.73
293.155	480.78
293.382	481.13
293.61	480.29
293.837	480.73
294.064	480.67
294.291	480.2
294.518	480.62
294.745	479.22
294.972	479.67
295.2	479.96
295.427	479.75
295.654	480.18
295.881	478.98
296.108	478.51
296.335	478.15
296.562	477.71
296.789	477.47
297.016	477.85
297.243	478.33
297.47	478.31
297.697	478.18
297.924	476.76
298.151	475.67
298.378	475.27
298.604	475.13
298.831	473.58
299.058	472.42
299.285	471.98
299.512	470.31
299.739	469.31
299.966	468.73
300.192	467.15
300.419	466.75
300.646	466.65
300.873	465.89
301.099	465.85
301.326	465.93
301.553	466.45
301.78	466.67
302.006	466.42
302.233	465.82
302.46	465.05
302.686	464.62
302.913	463.35
303.14	462.36
303.366	462.16
303.593	461.33
303.819	460.45
304.046	459.09
304.272	457.93
304.499	458.38
304.725	458.76
304.952	458.29
305.179	457.53
305.405	458.73
305.631	459.87
305.858	459.91
306.084	458.36
306.311	458.84
306.537	459.44
306.764	460.58
306.99	459.89
307.216	459.85
307.443	459.38
307.669	460.29
307.895	458.65
308.122	458
308.348	457.82
308.574	458.8
308.801	458.33
309.027	457.45
309.253	455.73
309.479	455.13
309.706	454.49
309.932	455.11
310.158	453.91
310.384	454.8
310.61	454.02
310.837	454.16
311.063	454.07
311.289	453.24
311.515	453.27
311.741	452.62
311.967	453.31
312.193	453.98
312.419	453.93
312.645	454.44
312.871	453.62
313.097	453.24
313.323	452.78
313.549	452.87
313.775	454.16
314.001	454.6
314.227	455.31
314.453	454.53
314.679	453.16
314.905	452.22
315.131	451.31
315.357	452.27
315.583	452.25
315.809	452.64
316.034	452.33
316.26	452.76
316.486	453.15
316.712	453.75
316.938	453.22
317.163	454.47
317.389	454.89
317.615	455.64
317.841	456.29
318.066	457.53
318.292	457.96
318.518	458.82
318.743	459.24
318.969	459.67
319.195	459.8
319.42	461.47
319.646	461.6
319.872	463.62
320.097	465.25
320.323	465.73
320.548	467.53
320.774	468.53
320.999	469.82
321.225	470.95
321.45	471.55
321.676	473.35
321.901	474.71
322.127	475.96
322.352	476.82
322.578	479.18
322.803	481.09
323.029	482.64
323.254	484.49
323.479	485.67
323.705	486.93
323.93	488.73
324.155	491.02
324.381	492.98
324.606	495.04
324.831	497.05
325.057	497.2
325.282	498.45
325.507	499.27
325.732	501.82
325.958	504.96
326.183	507.71
326.408	509.8
326.633	511.69
326.858	514.76
327.084	517.6
327.309	520.96
327.534	524.22
327.759	527.55
327.984	530.56
328.209	532.62
328.434	535.56
328.659	539.07
328.884	542.35
329.109	544.38
329.334	547.6
329.559	550.55
329.784	553.13
330.009	556.25
330.234	559.87
330.459	563.4
330.684	567.09
330.909	570.85
331.134	573.98
331.359	577.91
331.584	581.53
331.809	584.22
332.034	588
332.259	592.84
332.483	597.15
332.708	600.96
332.933	606.02
333.158	610.36
333.383	614.98
333.607	619.35
333.832	625
334.057	631.35
334.282	638.09
334.506	644.02
334.731	648.6
334.956	655.78
335.18	661.73
335.405	666.04
335.63	673.15
335.854	678.47
336.079	684.65
336.303	690.33
336.528	695.71
336.753	701.33
336.977	707.62
337.202	713.75
337.426	719.69
337.651	724.96
337.875	732.95
338.1	738.09
338.324	744.85
338.549	750.2
338.773	756.58
338.997	764.16
339.222	770.76
339.446	777.85
339.671	785.07
339.895	792.47
340.119	800.73
340.344	807.78
340.568	814.64
340.792	822
341.017	829.56
341.241	836.55
341.465	844.71
341.689	851.62
341.914	858.35
342.138	867.22
342.362	873.27
342.586	882.22
342.811	889.84
343.035	898.75
343.259	907.35
343.483	917.69
343.707	926.58
343.931	936.51
344.155	945.64
344.38	954.84
344.604	963.62
344.828	975.04
345.052	984.18
345.276	993.18
345.5	1001.67
345.724	1011.56
345.948	1021.53
346.172	1033.11
346.396	1041.07
346.62	1053.82
346.844	1064.64
347.068	1072.58
347.292	1080.2
347.515	1090.05
347.739	1103.11
347.963	1114.73
348.187	1125.04
348.411	1133
348.635	1143
348.859	1153.55
349.082	1162.04
349.306	1171.85
349.53	1183.44
349.754	1195.62
349.977	1206.24
350.201	1214.65
350.425	1225.58
350.649	1236.25
350.872	1247.51
351.096	1256.67
351.32	1266.8
351.543	1276.96
351.767	1288.78
351.99	1299.73
352.214	1309.64
352.438	1319.96
352.661	1330.35
352.885	1340.64
353.108	1351.96
353.332	1363.22
353.555	1376.29
353.779	1390.11
354.002	1403.56
354.226	1415.07
354.449	1429.04
354.673	1443.65
354.896	1455.25
355.12	1468.22
355.343	1478.85
355.566	1491.95
355.79	1505.04
356.013	1516.18
356.237	1526.51
356.46	1537.96
356.683	1549.73
356.907	1559.75
357.13	1571.78
357.353	1585.13
357.576	1597.84
357.8	1613.02
358.023	1624.09
358.246	1637.65
358.469	1650
358.693	1662.82
358.916	1676.33
359.139	1689.55
359.362	1702.96
359.585	1715.07
359.808	1727.13
360.031	1738.29
360.255	1752.36
360.478	1765.8
360.701	1777.8
360.924	1791.36
361.147	1804.38
361.37	1818.47
361.593	1830.36
361.816	1843.82
362.039	1856.58
362.262	1871.11
362.485	1885.02
362.708	1898.38
362.931	1911.75
363.154	1925.56
363.377	1938.42
363.599	1952.56
363.822	1963.98
364.045	1980.55
364.268	1993.87
364.491	2008.38
364.714	2021.98
364.936	2038.56
365.159	2052.09
365.382	2066.67
365.605	2080.85
365.828	2099.56
366.05	2115.09
366.273	2131.84
366.496	2147.05
366.718	2163.24
366.941	2178.87
367.164	2194.15
367.386	2209.25
367.609	2226.11
367.832	2241.58
368.054	2259.24
368.277	2272.2
368.5	2288.31
368.722	2301.25
368.945	2316.36
369.167	2332.25
369.39	2349.15
369.612	2365.47
369.835	2381.4
370.057	2396.51
370.28	2412.05
370.502	2426.24
370.725	2443.49
370.947	2457.51
371.169	2478.6
371.392	2495.44
371.614	2512.93
371.837	2527.87
372.059	2545.15
372.281	2561.16
372.504	2578.42
372.726	2597.95
372.948	2617.33
373.171	2635.18
373.393	2653.38
373.615	2667.78
373.837	2686.36
374.06	2702.2
374.282	2721.55
374.504	2738.75
374.726	2760.38
374.948	2777.4
375.17	2793.69
375.393	2809.89
375.615	2828.78
375.837	2850.18
376.059	2871.87
376.281	2889.2
376.503	2912.15
376.725	2932.51
376.947	2953.27
377.169	2971.76
377.391	2990.42
377.613	3012.69
377.835	3035.95
378.057	3055.25
378.279	3073.44
378.501	3092.35
378.723	3112.84
378.945	3130.85
379.167	3151.89
379.389	3175.98
379.611	3198.11
379.833	3222.33
380.054	3243.15
380.276	3265.56
380.498	3287.04
380.72	3312.56
380.942	3338.09
381.163	3364.69
381.385	3389.76
381.607	3412.71
381.829	3437.75
382.05	3461.75
382.272	3487.96
382.494	3514.25
382.716	3538.53
382.937	3564.45
383.159	3590.27
383.381	3614.2
383.602	3637.4
383.824	3665.07
384.045	3689.78
384.267	3714.49
384.488	3738.47
384.71	3764.36
384.932	3791.6
385.153	3816.45
385.375	3843.44
385.596	3866.69
385.818	3891.44
386.039	3919.24
386.261	3946.15
386.482	3975.85
386.703	3999.75
386.925	4028.05
387.146	4052.89
387.368	4076.82
387.589	4106.84
387.81	4135.11
388.032	4167
388.253	4199.38
388.474	4229.07
388.696	4255.47
388.917	4283.13
389.138	4311.42
389.359	4339.58
389.581	4372.98
389.802	4403.62
390.023	4430.25
390.244	4462.29
390.465	4490.11
390.687	4518.73
390.908	4547.13
391.129	4577.4
391.35	4608.95
391.571	4642.56
391.792	4676.25
392.013	4702.95
392.234	4731.4
392.455	4765.38
392.677	4798.07
392.898	4830.24
393.119	4860.71
393.34	4890.96
393.561	4924.38
393.782	4954.76
394.003	4986.51
394.223	5015.6
394.444	5049.49
394.665	5087.31
394.886	5119.91
395.107	5150.47
395.328	5183.56
395.549	5217.73
395.77	5252.67
395.99	5285.33
396.211	5314.76
396.432	5345.13
396.653	5380.96
396.874	5413.13
397.094	5446.64
397.315	5478.15
397.536	5510.07
397.757	5540.24
397.977	5573.58
398.198	5606.25
398.419	5636.25
398.639	5676.04
398.86	5715.65
399.081	5749.73
399.301	5788.96
399.522	5820.55
399.742	5851.78
399.963	5889.2
400.184	5926
400.404	5961.64
400.625	5997.91
400.845	6034.98
401.066	6068.8
401.286	6099.58
401.507	6129.65
401.727	6160.55
401.948	6193.73
402.168	6233.53
402.388	6267.91
402.609	6300.71
402.829	6332.24
403.05	6364.25
403.27	6401.02
403.49	6434.18
403.711	6470.31
403.931	6505.16
404.151	6539.96
404.372	6576.89
404.592	6608.8
404.812	6636.42
405.032	6676.38
405.253	6708.85
405.473	6742.51
405.693	6776.27
405.913	6808.85
406.133	6840.71
406.353	6881.6
406.574	6917.91
406.794	6953.27
407.014	6990.16
407.234	7032.38
407.454	7062.07
407.674	7099.64
407.894	7136.87
408.114	7172.31
408.334	7207.82
408.554	7245.76
408.774	7280.05
408.994	7315.16
409.214	7353.75
409.434	7389.58
409.654	7422.76
409.874	7462.36
410.094	7503.53
410.314	7537.33
410.534	7575.62
410.754	7616.16
410.974	7652.35
411.193	7688.22
411.413	7728.31
411.633	7762.69
411.853	7801.18
412.073	7836.93
412.292	7876.38
412.512	7913.76
412.732	7958.18
412.952	7997.82
413.171	8039.4
413.391	8082.93
413.611	8123.64
413.831	8165.82
414.05	8204.16
414.27	8249.33
414.489	8295.16
414.709	8338.89
414.929	8382.76
415.148	8427.55
415.368	8467.35
415.587	8507.65
415.807	8548.87
416.026	8595.64
416.246	8632.89
416.465	8681.64
416.685	8719.24
416.904	8765.09
417.124	8806.71
417.343	8851.22
417.563	8889.91
417.782	8938.31
418.002	8982.65
418.221	9025.4
418.44	9067.18
418.66	9113.62
418.879	9157.75
419.098	9200.64
419.318	9244.65
419.537	9289.51
419.756	9328.24
419.976	9370.07
420.195	9413.56
420.414	9460.69
420.633	9503.96
420.853	9546.31
421.072	9593.4
421.291	9637.65
421.51	9685.38
421.729	9723.69
421.948	9763.22
422.168	9810.8
422.387	9858.73
422.606	9902.49
422.825	9945.38
423.044	9988.87
423.263	10032.07
423.482	10075.31
423.701	10120.82
423.92	10164.31
424.139	10207.87
424.358	10253.73
424.577	10300.13
424.796	10352.45
425.015	10394.49
425.234	10434.91
425.453	10483.04
425.672	10530.42
425.891	10575.05
426.11	10615.65
426.328	10662.13
426.547	10709.95
426.766	10762.22
426.985	10807.75
427.204	10852.04
427.422	10899.87
427.641	10954.38
427.86	11002.78
428.079	11054.73
428.297	11104.64
428.516	11152.4
428.735	11200.64
428.954	11253.36
429.172	11301.13
429.391	11348.02
429.61	11396.44
429.828	11441.07
430.047	11485.29
430.265	11531.15
430.484	11575.58
430.703	11622.98
430.921	11673.4
431.14	11720.33
431.358	11762.33
431.577	11808.16
431.795	11857.47
432.014	11900.67
432.232	11956.78
432.451	12010.49
432.669	12056.33
432.887	12107.27
433.106	12151.47
433.324	12200.18
433.543	12245.49
433.761	12296.76
433.979	12342.64
434.198	12391.49
434.416	12433.05
434.634	12475.85
434.853	12517.67
435.071	12567.49
435.289	12608.07
435.507	12652.78
435.726	12695.87
435.944	12746.36
436.162	12794.95
436.38	12841.22
436.598	12883.87
436.817	12931.42
437.035	12980.24
437.253	13022.75
437.471	13068.07
437.689	13114.96
437.907	13163.38
438.125	13214.09
438.343	13263.09
438.561	13304.16
438.78	13356.2
438.998	13403.98
439.216	13457.91
439.434	13502.31
439.652	13552.64
439.869	13604.24
440.087	13648.76
440.305	13699.05
440.523	13748.13
440.741	13789.47
440.959	13841.45
441.177	13884.13
441.395	13928.84
441.613	13976.56
441.831	14025.6
442.048	14073.2
442.266	14110.31
442.484	14166.33
442.702	14210.44
442.919	14256.69
443.137	14311.11
443.355	14358.13
443.573	14409.69
443.79	14463.45
444.008	14514.78
444.226	14560.16
444.443	14611.96
444.661	14666.53
444.879	14712.42
445.096	14759.56
445.314	14812.58
445.532	14859.62
445.749	14905.55
445.967	14949.24
446.184	14994.42
446.402	15037.96
446.619	15085.02
446.837	15122.75
447.054	15167.38
447.272	15211.53
447.489	15262.75
447.707	15304.22
447.924	15352.75
448.141	15409.93
448.359	15461.07
448.576	15508.42
448.794	15553.36
449.011	15602.87
449.228	15656.64
449.446	15709.05
449.663	15755.93
449.88	15805.53
450.098	15856.38
450.315	15906.16
450.532	15949.04
450.749	15996.58
450.967	16045.84
451.184	16092.82
451.401	16142.65
451.618	16192.04
451.835	16241.69
452.052	16291.78
452.27	16338.24
452.487	16385.95
452.704	16430.6
452.921	16479.25
453.138	16530.2
453.355	16577.24
453.572	16624.09
453.789	16673.2
454.006	16720.85
454.223	16766.71
454.44	16814.8
454.657	16862.07
454.874	16910.36
455.091	16954.45
455.308	16997.22
455.525	17038.44
455.742	17084.42
455.959	17133.51
456.176	17178.4
456.393	17227.11
456.609	17270.73
456.826	17324.93
457.043	17379.45
457.26	17422.18
457.477	17473.65
457.693	17515.13
457.91	17565.76
458.127	17613.85
458.344	17663.76
458.56	17707.04
458.777	17747.78
458.994	17788.62
459.21	17818.31
459.427	17843.25
459.644	17875.36
459.86	17905.67
460.077	17948.84
460.294	17981.89
460.51	18012.4
460.727	18048.11
460.943	18088.53
461.16	18125.2
461.376	18163.67
461.593	18203.16
461.809	18243.13
462.026	18285.93
462.242	18330.45
462.459	18364.67
462.675	18403.29
462.892	18446.96
463.108	18482.44
463.324	18509.89
463.541	18553.4
463.757	18597.85
463.974	18639.25
464.19	18686.8
464.406	18736.02
464.623	18775.33
464.839	18832.73
465.055	18876.35
465.271	18924.35
465.488	18970.75
465.704	19022.64
465.92	19069.55
466.136	19119.31
466.353	19172.29
466.569	19221.78
466.785	19265.87
467.001	19327.31
467.217	19371.47
467.433	19433.07
467.649	19486.98
467.865	19545.89
468.082	19604.87
468.298	19663.15
468.514	19726.11
468.73	19785.91
468.946	19849.62
469.162	19920.02
469.378	19982.56
469.594	20050.47
469.81	20116.27
470.026	20185
470.242	20252.45
470.457	20316.6
470.673	20380.71
470.889	20445.82
471.105	20514.96
471.321	20585.42
471.537	20650.73
471.753	20709.45
471.968	20777.82
472.184	20840.8
472.4	20909.16
472.616	20978.78
472.832	21059.76
473.047	21137.82
473.263	21208.38
473.479	21286.71
473.694	21357.38
473.91	21429.87
474.126	21512.53
474.341	21588.42
474.557	21668.89
474.773	21732.2
474.988	21799.47
475.204	21876.07
475.42	21947.55
475.635	22018.96
475.851	22083.25
476.066	22150.36
476.282	22225.36
476.497	22283.62
476.713	22346.38
476.928	22409.58
477.144	22484.91
477.359	22557.96
477.575	22615.58
477.79	22677.44
478.005	22739.64
478.221	22806.44
478.436	22870.35
478.651	22922.04
478.867	22984.69
479.082	23045.75
479.297	23088.51
479.513	23147.25
479.728	23199.58
479.943	23248.24
480.159	23307.27
480.374	23364.71
480.589	23410.25
480.804	23460.8
481.019	23513.51
481.235	23564.76
481.45	23611.49
481.665	23674.35
481.88	23718.16
482.095	23772.33
482.31	23829.02
482.525	23875.76
482.741	23924.29
482.956	23975.47
483.171	24026.16
483.386	24071.98
483.601	24119.8
483.816	24170.35
484.031	24212.47
484.246	24256.15
484.461	24297.42
484.676	24336.75
484.891	24373.4
485.105	24407.25
485.32	24448.24
485.535	24482.45
485.75	24533.11
485.965	24579.16
486.18	24611.29
486.395	24653.56
486.609	24700.11
486.824	24744.51
487.039	24791.45
487.254	24833.89
487.469	24876.4
487.683	24920.02
487.898	24960.47
488.113	24992.18
488.327	25030.42
488.542	25076.87
488.757	25119.95
488.972	25159.42
489.186	25193.05
489.401	25225.16
489.615	25258.16
489.83	25294.53
490.045	25327.44
490.259	25375.29
490.474	25415.02
490.688	25444.73
490.903	25474.8
491.117	25497.09
491.332	25525.91
491.546	25555.04
491.761	25584.87
491.975	25615.76
492.19	25643.6
492.404	25667.75
492.618	25689.75
492.833	25717.04
493.047	25753.6
493.262	25785.73
493.476	25817.65
493.69	25838.35
493.905	25872.49
494.119	25907.96
494.333	25943.02
494.547	25972.55
494.762	26006.96
494.976	26033.13
495.19	26058.18
495.404	26077.75
495.619	26105.24
495.833	26138.25
496.047	26169.36
496.261	26181.73
496.475	26193.33
496.689	26197.73
496.903	26209.69
497.117	26210.85
497.332	26210.67
497.546	26205.27
497.76	26196.27
497.974	26183.6
498.188	26175.18
498.402	26164.47
498.616	26153.15
498.83	26144.44
499.044	26144.2
499.258	26145.96
499.472	26140.25
499.685	26147.02
499.899	26159.67
500.113	26169.93
500.327	26177.87
500.541	26179.64
500.755	26191.05
500.969	26213.42
501.183	26228.96
501.396	26239.47
501.61	26254.25
501.824	26283.42
502.038	26293.44
502.251	26312.49
502.465	26332.69
502.679	26352.67
502.892	26366.35
503.106	26381.55
503.32	26398.29
503.533	26421.15
503.747	26444.73
503.961	26467.07
504.174	26489.4
504.388	26527.22
504.602	26558.29
504.815	26593.98
505.029	26633.2
505.242	26690.58
505.456	26739.58
505.669	26784.6
505.883	26831.45
506.096	26884.75
506.31	26940.16
506.523	26992.6
506.736	27041.64
506.95	27083.24
507.163	27133.24
507.377	27190.44
507.59	27241.09
507.803	27300.09
508.017	27361.55
508.23	27426.51
508.443	27486
508.657	27543.89
508.87	27608.71
509.083	27671.22
509.296	27752.93
509.51	27832.84
509.723	27914.98
509.936	27993.33
510.149	28074.45
510.363	28162.42
510.576	28250.84
510.789	28347.16
511.002	28446.02
511.215	28546.73
511.428	28648.24
511.641	28740.25
511.854	28836.16
512.067	28931.62
512.28	29034.71
512.493	29140.44
512.707	29238.16
512.92	29333.07
513.132	29425.56
513.345	29523.36
513.558	29628.42
513.771	29733.47
513.984	29847.11
514.197	29949.58
514.41	30058.07
514.623	30158.13
514.836	30258.53
515.049	30364
515.262	30463.64
515.474	30574.4
515.687	30672.58
515.9	30765.53
516.113	30865.31
516.325	30957.89
516.538	31053.29
516.751	31138.27
516.964	31233.78
517.176	31323.16
517.389	31409.13
517.602	31495.24
517.814	31575.33
518.027	31655.75
518.24	31731.44
518.452	31809.18
518.665	31883.02
518.877	31969.73
519.09	32040.58
519.303	32107.55
519.515	32175.8
519.728	32239.25
519.94	32303.44
520.153	32365.64
520.365	32442.25
520.578	32507.33
520.79	32566.6
521.002	32636.45
521.215	32686.04
521.427	32749.76
521.64	32805.49
521.852	32867.11
522.064	32917.71
522.277	32979.42
522.489	33035.64
522.701	33086.18
522.914	33138.62
523.126	33191.76
523.338	33236.53
523.551	33287.36
523.763	33340.42
523.975	33396.36
524.187	33438.2
524.399	33485.76
524.612	33528.62
524.824	33584.02
525.036	33620.15
525.248	33666.44
525.46	33702.93
525.672	33742.05
525.884	33789.87
526.096	33819.11
526.308	33843.07
526.521	33873.44
526.733	33911.84
526.945	33941.67
527.157	33961.2
527.369	33995.07
527.581	34021.6
527.793	34051.93
528.004	34075.93
528.216	34091.85
528.428	34129.38
528.64	34163.16
528.852	34199.95
529.064	34227.73
529.276	34255.82
529.488	34288.78
529.699	34307.87
529.911	34330.75
530.123	34349.91
530.335	34375.15
530.547	34402.78
530.758	34430.76
530.97	34467.69
531.182	34488.09
531.393	34525.25
531.605	34561.75
531.817	34592.27
532.029	34628.15
532.24	34668.07
532.452	34708.73
532.663	34739.31
532.875	34763.93
533.087	34782.07
533.298	34801.65
533.51	34824.04
533.721	34839.05
533.933	34853.24
534.144	34862.29
534.356	34875.56
534.567	34881.96
534.779	34892.53
534.99	34905.8
535.202	34929.53
535.413	34947.85
535.624	34960.89
535.836	34982.91
536.047	34995.67
536.259	35008.09
536.47	35028.6
536.681	35036.58
536.893	35050.47
537.104	35064.89
537.315	35079.62
537.526	35090.62
537.738	35106.6
537.949	35122.04
538.16	35142.36
538.371	35168.75
538.582	35187.33
538.794	35205.07
539.005	35231.11
539.216	35255.38
539.427	35284.56
539.638	35305.95
539.849	35319.42
540.06	35327.93
540.272	35347.16
540.483	35349.11
540.694	35349.6
540.905	35362.75
541.116	35368.89
541.327	35381.05
541.538	35378.73
541.749	35374.22
541.96	35375.38
542.17	35386.49
542.381	35390.2
542.592	35384.49
542.803	35386.71
543.014	35405.73
543.225	35411.8
543.436	35421.16
543.647	35428.44
543.857	35441.2
544.068	35443.78
544.279	35454.22
544.49	35464.11
544.701	35485.44
544.911	35498.36
545.122	35514.76
545.333	35515.55
545.543	35529.98
545.754	35537.95
545.965	35542.24
546.175	35546.95
546.386	35567.4
546.597	35572.6
546.807	35581.56
547.018	35582.91
547.229	35594.38
547.439	35595.2
547.65	35597.2
547.86	35598.89
548.071	35601.4
548.281	35609.36
548.492	35621.22
548.702	35619.62
548.913	35636.05
549.123	35639.84
549.333	35650.49
549.544	35654.6
549.754	35667.04
549.965	35677.98
550.175	35683.73
550.385	35696.73
550.596	35704.89
550.806	35718.89
551.016	35724.73
551.227	35727.2
551.437	35725.87
551.647	35723.73
551.857	35730.4
552.068	35745.45
552.278	35748.02
552.488	35764.42
552.698	35779.87
552.908	35781.18
553.119	35781.73
553.329	35789.67
553.539	35785.38
553.749	35781.65
553.959	35788.65
554.169	35788.75
554.379	35778.6
554.589	35777.82
554.799	35764.51
555.009	35756.95
555.219	35750.84
555.429	35749.82
555.639	35743.4
555.849	35745.51
556.059	35757.62
556.269	35747.35
556.479	35739.84
556.689	35734.71
556.899	35738.62
557.109	35743.95
557.319	35745.13
557.528	35748.6
557.738	35743.51
557.948	35732.31
558.158	35722.38
558.368	35710.65
558.577	35698.07
558.787	35693.22
558.997	35691.2
559.207	35682.35
559.416	35670.47
559.626	35648
559.836	35637.91
560.045	35626.44
560.255	35624.85
560.465	35624.38
560.674	35621.73
560.884	35630.31
561.093	35617.53
561.303	35610.27
561.512	35596.62
561.722	35582.22
561.932	35577.22
562.141	35571.67
562.351	35572.49
562.56	35571.16
562.769	35565.02
562.979	35559.95
563.188	35560.09
563.398	35558.91
563.607	35552
563.817	35558.4
564.026	35556.69
564.235	35545.8
564.445	35542.02
564.654	35530.22
564.863	35521.64
565.073	35504
565.282	35489.75
565.491	35457.93
565.7	35451.89
565.91	35437.71
566.119	35407.07
566.328	35391.8
566.537	35384.36
566.746	35369.38
566.956	35348.84
567.165	35336.87
567.374	35329.73
567.583	35312.6
567.792	35308.91
568.001	35284.78
568.21	35259.98
568.419	35247.82
568.628	35215.45
568.837	35186.82
569.046	35152.05
569.255	35129.02
569.464	35087.38
569.673	35048.73
569.882	35021.16
570.091	34987.58
570.3	34959.65
570.509	34937.25
570.718	34912.67
570.927	34910.24
571.135	34891.82
571.344	34885.33
571.553	34878.45
571.762	34881.25
571.971	34879.84
572.18	34862.8
572.388	34859.13
572.597	34846.8
572.806	34825.2
573.014	34812.29
573.223	34781.15
573.432	34758.67
573.641	34739.2
573.849	34710.36
574.058	34689.71
574.266	34665.2
574.475	34644.58
574.684	34622.05
574.892	34607.13
575.101	34601.05
575.309	34578.4
575.518	34566.96
575.726	34551.56
575.935	34529.2
576.143	34508.13
576.352	34487.07
576.56	34474.89
576.769	34458.75
576.977	34438.04
577.186	34415.51
577.394	34392.89
577.602	34368.38
577.811	34350.58
578.019	34325.36
578.228	34301.35
578.436	34277.93
578.644	34246.09
578.852	34203.67
579.061	34177.71
579.269	34146.47
579.477	34121.38
579.685	34090.36
579.894	34072.09
580.102	34038.91
580.31	34024.62
580.518	34003.29
580.726	33983.89
580.935	33966.69
581.143	33961.13
581.351	33942.87
581.559	33928.45
581.767	33913.05
581.975	33892.44
582.183	33867.33
582.391	33843.96
582.599	33809.71
582.807	33782.38
583.015	33757.82
583.223	33730.27
583.431	33708.96
583.639	33684.31
583.847	33651.55
584.055	33614.6
584.263	33598.89
584.471	33573.36
584.678	33555.36
584.886	33545.84
585.094	33533.09
585.302	33512.02
585.51	33495.31
585.718	33462.25
585.925	33433.07
586.133	33420.89
586.341	33405.56
586.549	33380.84
586.756	33362.62
586.964	33338.13
587.172	33304.31
587.379	33258.96
587.587	33230.55
587.795	33203.85
588.002	33168.51
588.21	33143.09
588.417	33109.56
588.625	33067.31
588.833	33032.29
589.04	32994.51
589.248	32959.64
589.455	32934.96
589.663	32920.73
589.87	32896.24
590.078	32860.95
590.285	32845.71
590.492	32821.84
590.7	32788.76
590.907	32779.44
591.115	32750.49
591.322	32728.22
591.529	32701.11
591.737	32671.93
591.944	32641.45
592.151	32610.75
592.359	32583.98
592.566	32550.87
592.773	32513.15
592.981	32481.76
593.188	32448.35
593.395	32418.98
593.602	32383.18
593.809	32353.09
594.017	32324.6
594.224	32296.25
594.431	32263.38
594.638	32228.58
594.845	32203.42
595.052	32177.98
595.259	32159.95
595.466	32129.22
595.673	32103.58
595.88	32086.85
596.088	32065.02
596.295	32030.78
596.502	32001.49
596.709	31971.55
596.915	31947.95
597.122	31919.98
597.329	31891.15
597.536	31849.58
597.743	31822.27
597.95	31794.62
598.157	31746.89
598.364	31701.69
598.571	31662.07
598.777	31617.95
598.984	31561.84
599.191	31504.07
599.398	31439.36
599.605	31398.93
599.811	31343.95
600.018	31278.69
600.225	31223.44
600.431	31183
600.638	31145.38
600.845	31111.95
601.052	31072.27
601.258	31043.87
601.465	30995.73
601.671	30949.36
601.878	30871.65
602.085	30794.18
602.291	30701.76
602.498	30574.6
602.704	30427.38
602.911	30260.58
603.117	30073.33
603.324	29873.38
603.53	29649.4
603.737	29429.36
603.943	29193.76
604.15	28942.67
604.356	28697.49
604.562	28443.62
604.769	28198.4
604.975	27947.25
605.181	27692.13
605.388	27437.93
605.594	27176.44
605.8	26919.75
606.007	26664.91
606.213	26398.84
606.419	26145.62
606.625	25874.6
606.832	25617.96
607.038	25347.96
607.244	25077.91
607.45	24814.53
607.656	24544.8
607.863	24276.71
608.069	24009.69
608.275	23735.27
608.481	23469.07
608.687	23193.05
608.893	22925.98
609.099	22649.07
609.305	22376.38
609.511	22111.42
609.717	21834.31
609.923	21549.75
610.129	21269
610.335	20983.16
610.541	20693.84
610.747	20391.18
610.953	20095.4
611.159	19798.47
611.365	19487.64
611.571	19184.56
611.776	18875.16
611.982	18566.44
612.188	18259.55
612.394	17945.62
612.6	17629.44
612.806	17316.75
613.011	17014.36
613.217	16706.24
613.423	16400.16
613.628	16101.71
613.834	15802.45
614.04	15502.64
614.246	15209.85
614.451	14926.29
614.657	14650.67
614.862	14386.04
615.068	14118.82
615.274	13860.51
615.479	13602.78
615.685	13349.69
615.89	13105.56
616.096	12861.13
616.301	12618.16
616.507	12375.91
616.712	12125.24
616.918	11875.62
617.123	11623.8
617.329	11370.93
617.534	11108.11
617.74	10845.75
617.945	10581.31
618.15	10303.69
618.356	9864.09
618.561	9073.44
618.766	8113.31
618.972	7128.2
619.177	6164.53
619.382	5223.98
619.588	4310.87
619.793	3766.2
619.998	3134.2
620.203	2371.3
620.408	1443.43
620.614	542.97
