Data from test1_MAYP1115451__78__10-17-35-513.txt Node

Date: Wed Jun 12 10:17:35 MDT 2024
User: Modes Lab
Spectrometer: MAYP111545
Trigger mode: 0
Integration Time (sec): 8.000000E-3
Scans to average: 5
Electric dark correction enabled: true
Nonlinearity correction enabled: false
Boxcar width: 5
XAxis mode: Wavelengths
Number of Pixels in Spectrum: 2068
>>>>>Begin Spectral Data<<<<<
165.214	161.87
165.449	162.26
165.683	170.91
165.918	179.26
166.152	185.25
166.387	191.49
166.621	123.12
166.856	161.23
167.09	180.54
167.325	203.82
167.559	220.74
167.794	234.87
168.028	242.14
168.263	243.87
168.497	244.2
168.732	246.27
168.966	246.07
169.2	247.03
169.435	249.34
169.669	250.32
169.903	252.34
170.138	254.54
170.372	256.02
170.606	257.38
170.841	258.83
171.075	260.76
171.309	261.07
171.544	263.25
171.778	265.11
172.012	266.29
172.246	266.8
172.48	268.63
172.715	269.94
172.949	272.12
173.183	274.31
173.417	275.82
173.651	277.12
173.885	279.43
174.119	279.69
174.354	280.67
174.588	281.69
174.822	282.72
175.056	283.4
175.29	283.16
175.524	282.62
175.758	282.89
175.992	282.6
176.226	282.49
176.46	282.23
176.694	283.72
176.928	284.62
177.162	285.09
177.396	286.03
177.63	287.07
177.864	288.52
178.097	290.14
178.331	289.87
178.565	290.31
178.799	290.89
179.033	291.45
179.267	290.56
179.5	291.63
179.734	291.89
179.968	292.82
180.202	292.23
180.436	292.85
180.669	294.2
180.903	295.6
181.137	297.4
181.371	298.43
181.604	299.18
181.838	301.82
182.072	302.22
182.305	304.32
182.539	305.4
182.772	306.47
183.006	306.85
183.24	307.29
183.473	311.05
183.707	312.07
183.94	313.27
184.174	314.6
184.408	315.65
184.641	316.8
184.875	317.27
185.108	319.02
185.342	321.11
185.575	322.2
185.808	323.82
186.042	322.56
186.275	323.65
186.509	324.62
186.742	325.94
186.976	326.63
187.209	328.78
187.442	330.43
187.676	330.31
187.909	331.16
188.142	333.11
188.376	334.18
188.609	336.18
188.842	337.45
189.076	340.02
189.309	341.78
189.542	343.8
189.775	344.62
190.009	346.62
190.242	349.42
190.475	350.92
190.708	352.71
190.941	354.29
191.174	356.74
191.408	358.71
191.641	359.03
191.874	360.82
192.107	363.14
192.34	365.74
192.573	367.32
192.806	368.87
193.039	370.92
193.272	372.25
193.505	372.98
193.738	373.32
193.971	376
194.204	378.4
194.437	379.94
194.67	381.05
194.903	383
195.136	383.47
195.369	385.31
195.602	387.42
195.835	389.56
196.068	392.22
196.301	393.63
196.533	395.2
196.766	397.32
196.999	399.52
197.232	401.91
197.465	403.43
197.698	405.42
197.93	407.8
198.163	409.56
198.396	410.94
198.629	413.63
198.861	416.74
199.094	418.34
199.327	420.94
199.559	423.03
199.792	424.16
200.025	427.18
200.257	429.23
200.49	430.98
200.723	433.82
200.955	436.31
201.188	438.25
201.42	440.34
201.653	443.47
201.886	445.65
202.118	446.85
202.351	449.16
202.583	450.52
202.816	453.96
203.048	456.67
203.281	458.34
203.513	459.42
203.745	462.72
203.978	464.14
204.21	465.51
204.443	466.27
204.675	469.22
204.907	471.29
205.14	473.78
205.372	476.27
205.605	478.45
205.837	480.47
206.069	484.72
206.302	484.91
206.534	487.87
206.766	489.94
206.998	493.18
207.231	495.82
207.463	497.96
207.695	500.29
207.927	503.05
208.159	505.25
208.392	507.16
208.624	508.31
208.856	511.78
209.088	513.8
209.32	515.65
209.552	517.31
209.784	519.27
210.017	521.94
210.249	523.22
210.481	524.32
210.713	525.92
210.945	528.22
211.177	529.96
211.409	531.32
211.641	533.85
211.873	536.54
212.105	539.71
212.337	540.63
212.569	542.27
212.801	544.4
213.033	545.82
213.264	547.29
213.496	550.32
213.728	551.67
213.96	553.87
214.192	555.52
214.424	557.43
214.656	559.07
214.887	561.92
215.119	564.07
215.351	566.42
215.583	569
215.815	571.31
216.046	571.67
216.278	573.91
216.51	574.74
216.741	576.38
216.973	577.51
217.205	577.91
217.436	578.74
217.668	581.03
217.9	582.05
218.131	583.76
218.363	584.47
218.595	585.91
218.826	588.74
219.058	590.6
219.289	591.16
219.521	591.87
219.752	592.71
219.984	594.09
220.215	593.71
220.447	595.03
220.678	594.87
220.91	597.2
221.141	597.89
221.373	598.58
221.604	599.02
221.836	600.12
222.067	602.58
222.298	604.11
222.53	604.98
222.761	606.45
222.993	607.23
223.224	608.52
223.455	608.78
223.686	609.51
223.918	609.38
224.149	610.51
224.38	611.62
224.612	612.47
224.843	613.09
225.074	613.67
225.305	614.76
225.536	614.22
225.768	615.12
225.999	614.83
226.23	615.78
226.461	615.25
226.692	616.51
226.923	616.31
227.155	616.85
227.386	618.11
227.617	618.18
227.848	618.38
228.079	621.05
228.31	622.09
228.541	623.22
228.772	623.23
229.003	624.02
229.234	624.29
229.465	623.96
229.696	622.71
229.927	622.85
230.158	623.43
230.389	623.11
230.62	622.22
230.85	621.49
231.081	620.38
231.312	621.34
231.543	620.56
231.774	619.85
232.005	621.96
232.236	622.12
232.466	621.87
232.697	622.4
232.928	623.74
233.159	622.71
233.389	623.14
233.62	624.32
233.851	624.31
234.082	626.45
234.312	626.96
234.543	625.87
234.774	625.58
235.004	625.42
235.235	624.98
235.466	623.56
235.696	624.07
235.927	623.56
236.157	623.96
236.388	623.63
236.618	622.76
236.849	622.12
237.08	623.05
237.31	623.78
237.541	623.72
237.771	623.47
238.002	622.38
238.232	621.98
238.463	620.12
238.693	620.07
238.923	619.94
239.154	618.83
239.384	619.18
239.615	617.56
239.845	616.31
240.075	615.76
240.306	615.16
240.536	615.27
240.766	614.94
240.997	615.98
241.227	614.07
241.457	613.31
241.687	614.36
241.918	615.14
242.148	615.36
242.378	616.09
242.608	614.91
242.839	614.69
243.069	613.98
243.299	613.43
243.529	614.71
243.759	614.34
243.989	614.25
244.22	613.09
244.45	611.34
244.68	609.14
244.91	608.03
245.14	608.69
245.37	607.4
245.6	606.83
245.83	606.62
246.06	603.69
246.29	604.49
246.52	602.54
246.75	601.92
246.98	602.14
247.21	602.65
247.44	601.87
247.67	600.51
247.9	600.91
248.13	599.87
248.359	599.02
248.589	598.98
248.819	597.65
249.049	596.78
249.279	597.03
249.509	596.2
249.738	595.47
249.968	595.49
250.198	594.47
250.428	593.83
250.657	594.69
250.887	593.67
251.117	593.23
251.347	593.47
251.576	594.65
251.806	592.45
252.036	591.16
252.265	590.49
252.495	588.51
252.725	589.2
252.954	588.96
253.184	588.25
253.413	587.91
253.643	587.8
253.873	585.71
254.102	584.22
254.332	584.42
254.561	583.03
254.791	582.4
255.02	582.34
255.25	580.23
255.479	578.56
255.708	578.14
255.938	577.8
256.167	576.38
256.397	575.69
256.626	575.32
256.856	574.76
257.085	575
257.314	574.56
257.544	573.85
257.773	574.51
258.002	575.92
258.232	574.69
258.461	575
258.69	575.45
258.919	575.23
259.149	575.25
259.378	575.82
259.607	575.69
259.836	574.62
260.065	573.69
260.295	572.14
260.524	570.2
260.753	570.4
260.982	567.96
261.211	567.62
261.44	567.52
261.669	566.14
261.899	564.69
262.128	563.02
262.357	562.98
262.586	562.92
262.815	563.94
263.044	561.98
263.273	562.69
263.502	563.32
263.731	562.42
263.96	559.74
264.189	558.34
264.418	556.98
264.646	556.36
264.875	554.96
265.104	553.27
265.333	551.12
265.562	551.18
265.791	548.23
266.02	546.4
266.249	544.83
266.477	545.14
266.706	544.36
266.935	542.83
267.164	543
267.393	542.18
267.621	542.56
267.85	542.29
268.079	541.6
268.307	541.52
268.536	541
268.765	539.74
268.993	539.45
269.222	539.25
269.451	539.67
269.679	538.71
269.908	539.36
270.137	538.76
270.365	538.22
270.594	538.34
270.822	537.52
271.051	537.45
271.279	538.12
271.508	538.72
271.736	540.63
271.965	539.94
272.193	539.6
272.422	539.8
272.65	540.71
272.879	540.31
273.107	540.05
273.336	540.38
273.564	540.18
273.792	539.67
274.021	537.74
274.249	535.58
274.477	535.11
274.706	534.31
274.934	532.69
275.162	530.51
275.391	528.52
275.619	526.82
275.847	523.85
276.075	521.76
276.304	519.85
276.532	520.36
276.76	519.49
276.988	518.8
277.216	518.23
277.445	516.27
277.673	516.34
277.901	517.83
278.129	518.03
278.357	519.43
278.585	520.14
278.813	519.87
279.041	517.63
279.269	517.09
279.497	517.09
279.725	515.58
279.954	516.03
280.182	514.82
280.41	513.51
280.637	513.11
280.865	511.6
281.093	510.49
281.321	510.87
281.549	512.38
281.777	511.38
282.005	511.23
282.233	511.72
282.461	511.12
282.689	510.78
282.916	509.16
283.144	508.03
283.372	507.47
283.6	507.47
283.828	506.69
284.055	504.54
284.283	504.09
284.511	502.83
284.739	501.83
284.966	501.98
285.194	500.69
285.422	500.92
285.649	500.74
285.877	501.12
286.105	500.62
286.332	500.4
286.56	501.09
286.788	501.23
287.015	500.98
287.243	500.43
287.47	499.27
287.698	499.78
287.925	500.74
288.153	499.51
288.381	498.31
288.608	498.14
288.836	496.6
289.063	495.14
289.29	494.8
289.518	493.25
289.745	491.11
289.973	490.51
290.2	490.05
290.428	487.82
290.655	488.36
290.882	487.23
291.11	486.05
291.337	484.38
291.564	484.16
291.792	482.31
292.019	482.32
292.246	482.78
292.473	482.96
292.701	481.98
292.928	481.76
293.155	481.22
293.382	481.2
293.61	480
293.837	480.94
294.064	480.29
294.291	479.91
294.518	479.65
294.745	478.94
294.972	478.67
295.2	478.2
295.427	477.31
295.654	476.32
295.881	475.51
296.108	476.18
296.335	475.94
296.562	475.78
296.789	475.11
297.016	474.67
297.243	474.72
297.47	474.49
297.697	473.03
297.924	472.47
298.151	471.25
298.378	470.92
298.604	469.85
298.831	469.42
299.058	468.87
299.285	469.31
299.512	468.98
299.739	468.51
299.966	466.87
300.192	467.27
300.419	466.8
300.646	467.11
300.873	467.4
301.099	467.18
301.326	465.87
301.553	466.2
301.78	466.47
302.006	465.91
302.233	465.43
302.46	464.91
302.686	463.05
302.913	462.78
303.14	461.65
303.366	461.87
303.593	462.11
303.819	462.32
304.046	460.12
304.272	458.36
304.499	458.12
304.725	457.72
304.952	457.45
305.179	458.94
305.405	459.03
305.631	460.03
305.858	459.42
306.084	459.45
306.311	458.8
306.537	459.27
306.764	459.16
306.99	459.02
307.216	458.76
307.443	458.83
307.669	457.83
307.895	457.67
308.122	457.12
308.348	455.54
308.574	453.82
308.801	452.91
309.027	453.25
309.253	452.49
309.479	451.12
309.706	450.6
309.932	449.58
310.158	449.36
310.384	449.29
310.61	447.72
310.837	448.71
311.063	449.4
311.289	449.76
311.515	448.83
311.741	448.54
311.967	449.47
312.193	449.92
312.419	450.76
312.645	451.83
312.871	451.52
313.097	452.42
313.323	452.45
313.549	452.6
313.775	454.27
314.001	454.63
314.227	455.43
314.453	456.49
314.679	456.27
314.905	457.02
315.131	455.27
315.357	455.52
315.583	455.82
315.809	455.71
316.034	455.92
316.26	455.47
316.486	456.91
316.712	457.4
316.938	455.72
317.163	456.43
317.389	456.67
317.615	459.23
317.841	460.02
318.066	460.74
318.292	461.71
318.518	461.82
318.743	461.12
318.969	460.98
319.195	461.83
319.42	462.69
319.646	463.92
319.872	464.12
320.097	463.69
320.323	464.09
320.548	465.91
320.774	467.27
320.999	468.43
321.225	470.22
321.45	471.16
321.676	472.2
321.901	474.52
322.127	475.51
322.352	478.03
322.578	479.91
322.803	482.25
323.029	484.2
323.254	485.02
323.479	487.32
323.705	489.14
323.93	489.92
324.155	490.98
324.381	491.31
324.606	492.94
324.831	495.14
325.057	496.71
325.282	497.29
325.507	498.56
325.732	500
325.958	500.82
326.183	501.85
326.408	504.87
326.633	508.38
326.858	512.18
327.084	514.72
327.309	515.31
327.534	518.31
327.759	520.52
327.984	524.25
328.209	527.03
328.434	530.18
328.659	535.02
328.884	538.18
329.109	539.65
329.334	543.56
329.559	547.36
329.784	550.96
330.009	554.85
330.234	559.36
330.459	560.4
330.684	564.82
330.909	569.98
331.134	573.32
331.359	578.03
331.584	582.96
331.809	587.34
332.034	591.38
332.259	596.2
332.483	599.98
332.708	603.89
332.933	610.07
333.158	613.47
333.383	617.23
333.607	621.67
333.832	626.6
334.057	631.56
334.282	634.51
334.506	640.03
334.731	643.69
334.956	648.62
335.18	654.69
335.405	658.87
335.63	666.78
335.854	673.32
336.079	677.82
336.303	683.42
336.528	690.03
336.753	696.47
336.977	701.43
337.202	709.34
337.426	715.07
337.651	721.34
337.875	728.45
338.1	734.22
338.324	739.22
338.549	749.07
338.773	755.89
338.997	761.87
339.222	768.85
339.446	775.67
339.671	781.83
339.895	789.96
340.119	798
340.344	805.23
340.568	812.32
340.792	820.8
341.017	825.51
341.241	831.6
341.465	840.31
341.689	847.98
341.914	855.52
342.138	862.87
342.362	871.87
342.586	880.49
342.811	889.25
343.035	897.91
343.259	906.74
343.483	917.45
343.707	926.49
343.931	935.63
344.155	946.05
344.38	957.11
344.604	967.54
344.828	975.32
345.052	983.32
345.276	992.42
345.5	999.87
345.724	1007.96
345.948	1016.96
346.172	1027.16
346.396	1035.98
346.62	1046.32
346.844	1055.62
347.068	1065.89
347.292	1075.65
347.515	1087.2
347.739	1099.32
347.963	1111.87
348.187	1123.47
348.411	1132.6
348.635	1143.32
348.859	1155.18
349.082	1163.63
349.306	1174.69
349.53	1183.58
349.754	1195.03
349.977	1204.12
350.201	1212.82
350.425	1222.31
350.649	1233.87
350.872	1245.52
351.096	1255.09
351.32	1264.32
351.543	1277.69
351.767	1288.6
351.99	1300.89
352.214	1311.92
352.438	1323.87
352.661	1334.87
352.885	1347.25
353.108	1357.94
353.332	1369.47
353.555	1382.4
353.779	1395.36
354.002	1404.91
354.226	1416.02
354.449	1429.45
354.673	1441.11
354.896	1453.96
355.12	1467.07
355.343	1479.47
355.566	1492.12
355.79	1505.43
356.013	1518.67
356.237	1530.07
356.46	1542.25
356.683	1552.38
356.907	1563.38
357.13	1576.6
357.353	1589.32
357.576	1600.82
357.8	1612.78
358.023	1622.89
358.246	1635.23
358.469	1647.85
358.693	1661.42
358.916	1676.54
359.139	1693.43
359.362	1705.31
359.585	1717.8
359.808	1728.91
360.031	1743.02
360.255	1758.03
360.478	1772.69
360.701	1786.18
360.924	1796.49
361.147	1809.47
361.37	1820.8
361.593	1831.32
361.816	1845.07
362.039	1859.87
362.262	1873.92
362.485	1886.42
362.708	1898.49
362.931	1912.45
363.154	1924.34
363.377	1940.14
363.599	1953.51
363.822	1967.38
364.045	1984.47
364.268	1999.89
364.491	2012.25
364.714	2026.31
364.936	2040.16
365.159	2054.54
365.382	2069.03
365.605	2082.89
365.828	2100.87
366.05	2115.96
366.273	2130.34
366.496	2141.16
366.718	2156.94
366.941	2172.92
367.164	2186.87
367.386	2204.45
367.609	2220.6
367.832	2234.36
368.054	2252.16
368.277	2266.25
368.5	2281.23
368.722	2297.92
368.945	2315.52
369.167	2332.91
369.39	2347.98
369.612	2366.78
369.835	2380.98
370.057	2397.76
370.28	2415.2
370.502	2432.89
370.725	2445.82
370.947	2463.51
371.169	2481.65
371.392	2500.56
371.614	2516.05
371.837	2533.56
372.059	2549.82
372.281	2565.87
372.504	2581.98
372.726	2600.42
372.948	2614.32
373.171	2633.02
373.393	2649.31
373.615	2666.45
373.837	2683.32
374.06	2697.25
374.282	2715.71
374.504	2734.23
374.726	2755.25
374.948	2773.8
375.17	2792.11
375.393	2811.89
375.615	2829.67
375.837	2847.56
376.059	2864.94
376.281	2883.72
376.503	2904.36
376.725	2924.63
376.947	2945.74
377.169	2964.49
377.391	2983.6
377.613	3005.27
377.835	3025.34
378.057	3050.54
378.279	3074.52
378.501	3095.83
378.723	3117.09
378.945	3139.14
379.167	3161.34
379.389	3180.69
379.611	3201.02
379.833	3223.22
380.054	3243.38
380.276	3269.12
380.498	3291.36
380.72	3314.54
380.942	3339.62
381.163	3362.91
381.385	3387.87
381.607	3409.2
381.829	3434.29
382.05	3460.49
382.272	3487.34
382.494	3515.87
382.716	3539.91
382.937	3563.94
383.159	3587.91
383.381	3611.6
383.602	3638.03
383.824	3662.43
384.045	3689.98
384.267	3717.07
384.488	3742.6
384.71	3766.85
384.932	3792.87
385.153	3818.98
385.375	3844.69
385.596	3871.31
385.818	3897.14
386.039	3921.78
386.261	3949.18
386.482	3977.42
386.703	4003.2
386.925	4027.54
387.146	4054.6
387.368	4077.65
387.589	4107.16
387.81	4135.87
388.032	4165.51
388.253	4197.05
388.474	4229.82
388.696	4261.71
388.917	4288.69
389.138	4318.07
389.359	4352.09
389.581	4381.67
389.802	4413.49
390.023	4440.78
390.244	4470.85
390.465	4498.96
390.687	4529.18
390.908	4557.76
391.129	4586.56
391.35	4618.98
391.571	4649.76
391.792	4678.83
392.013	4708.98
392.234	4739.56
392.455	4771.09
392.677	4801.82
392.898	4832.54
393.119	4864.65
393.34	4895.2
393.561	4926.6
393.782	4958.05
394.003	4989.16
394.223	5021.14
394.444	5054.76
394.665	5086.22
394.886	5118.4
395.107	5151.83
395.328	5188.56
395.549	5216.8
395.77	5249.42
395.99	5282.58
396.211	5317.72
396.432	5352.02
396.653	5389.72
396.874	5425.72
397.094	5460.91
397.315	5493.47
397.536	5528.36
397.757	5561.18
397.977	5598.62
398.198	5631.49
398.419	5664.52
398.639	5696.02
398.86	5727.31
399.081	5758.65
399.301	5790.91
399.522	5825.05
399.742	5857.52
399.963	5888.72
400.184	5918.34
400.404	5950.98
400.625	5984.94
400.845	6018.89
401.066	6050
401.286	6084.98
401.507	6119.58
401.727	6151.32
401.948	6185.83
402.168	6224.49
402.388	6262.32
402.609	6300.45
402.829	6337.16
403.05	6372.34
403.27	6408.02
403.49	6445.2
403.711	6480.09
403.931	6515.52
404.151	6550.12
404.372	6583.18
404.592	6614.2
404.812	6643.98
405.032	6677.63
405.253	6708.23
405.473	6740.83
405.693	6774.43
405.913	6806.83
406.133	6844.14
406.353	6878.09
406.574	6911.54
406.794	6945.43
407.014	6981.67
407.234	7019.25
407.454	7051.85
407.674	7089.4
407.894	7129.67
408.114	7164.72
408.334	7199.36
408.554	7234.22
408.774	7270.67
408.994	7313.63
409.214	7351.63
409.434	7389.45
409.654	7427.69
409.874	7467.16
410.094	7507.82
410.314	7546.49
410.534	7580.65
410.754	7619.87
410.974	7657.43
411.193	7692.65
411.413	7727.16
411.633	7771.74
411.853	7807.87
412.073	7841.51
412.292	7884.4
412.512	7920.56
412.732	7956.12
412.952	7995.91
413.171	8040.74
413.391	8078.76
413.611	8118.98
413.831	8162.89
414.05	8200.78
414.27	8246.38
414.489	8290.52
414.709	8326.34
414.929	8368.72
415.148	8411.56
415.368	8458.43
415.587	8499.63
415.807	8545.83
416.026	8592.43
416.246	8631.83
416.465	8670.85
416.685	8713.74
416.904	8755.34
417.124	8798.36
417.343	8840.89
417.563	8886.09
417.782	8930.65
418.002	8974.36
418.221	9018.09
418.44	9063.36
418.66	9110.32
418.879	9156.51
419.098	9199.42
419.318	9245.03
419.537	9292.92
419.756	9334.89
419.976	9376.4
420.195	9424.16
420.414	9465.76
420.633	9506.69
420.853	9544.31
421.072	9587.94
421.291	9632.22
421.51	9675.52
421.729	9719
421.948	9760.96
422.168	9807.63
422.387	9853.03
422.606	9889.07
422.825	9936.38
423.044	9981.76
423.263	10030.67
423.482	10071.02
423.701	10118.03
423.92	10166.36
424.139	10212.65
424.358	10260.63
424.577	10305.03
424.796	10349.78
425.015	10403.67
425.234	10447.47
425.453	10496.52
425.672	10537.65
425.891	10584.65
426.11	10625.91
426.328	10668.83
426.547	10713.27
426.766	10763.43
426.985	10813.29
427.204	10858.16
427.422	10903.2
427.641	10950.43
427.86	10994.82
428.079	11047.45
428.297	11093.96
428.516	11146.36
428.735	11197.69
428.954	11246.47
429.172	11286.02
429.391	11334.76
429.61	11386.25
429.828	11433.71
430.047	11478.69
430.265	11535.14
430.484	11579.4
430.703	11627.83
430.921	11669.54
431.14	11714.49
431.358	11761.47
431.577	11811.42
431.795	11854.4
432.014	11902.83
432.232	11946.36
432.451	11994.43
432.669	12036.05
432.887	12084.74
433.106	12135.05
433.324	12185.83
433.543	12236.78
433.761	12285.6
433.979	12330.11
434.198	12378.27
434.416	12424.09
434.634	12475.38
434.853	12524.54
435.071	12565.42
435.289	12613.43
435.507	12655.25
435.726	12697.58
435.944	12738.2
436.162	12786.34
436.38	12836.98
436.598	12881.11
436.817	12925.6
437.035	12970.31
437.253	13021.16
437.471	13073.78
437.689	13122.38
437.907	13175.89
438.125	13224.38
438.343	13274.32
438.561	13321.05
438.78	13366.94
438.998	13418.94
439.216	13470.25
439.434	13515.49
439.652	13560.05
439.869	13608.4
440.087	13650
440.305	13697.85
440.523	13749.74
440.741	13797.49
440.959	13844.03
441.177	13892.29
441.395	13938.32
441.613	13985.92
441.831	14035.78
442.048	14082.05
442.266	14130.58
442.484	14181.96
442.702	14233.09
442.919	14275.78
443.137	14325.72
443.355	14376.56
443.573	14426.74
443.79	14477.63
444.008	14525.8
444.226	14576.16
444.443	14630.83
444.661	14672.76
444.879	14718.38
445.096	14761.62
445.314	14815.2
445.532	14864.6
445.749	14912.67
445.967	14957.36
446.184	14998.47
446.402	15044.82
446.619	15090.94
446.837	15136.07
447.054	15188.09
447.272	15238.52
447.489	15279.72
447.707	15326.69
447.924	15366.47
448.141	15411.94
448.359	15466.31
448.576	15516.4
448.794	15566.03
449.011	15620.58
449.228	15669.22
449.446	15724.27
449.663	15770.65
449.88	15822.42
450.098	15866.72
450.315	15911.76
450.532	15960.96
450.749	16002.74
450.967	16056.67
451.184	16106.47
451.401	16155.07
451.618	16198.62
451.835	16235.69
452.052	16287.09
452.27	16343.11
452.487	16393.2
452.704	16446.07
452.921	16494.51
453.138	16540
453.355	16586.56
453.572	16628.4
453.789	16668.02
454.006	16718.96
454.223	16770.94
454.44	16815.85
454.657	16858.63
454.874	16900.56
455.091	16946.87
455.308	16991.62
455.525	17049.82
455.742	17099.82
455.959	17152.82
456.176	17201.29
456.393	17251.92
456.609	17294.43
456.826	17343.62
457.043	17389.47
457.26	17441.45
457.477	17495.94
457.693	17537.94
457.91	17572.67
458.127	17609.31
458.344	17647.31
458.56	17688.11
458.777	17720.38
458.994	17761
459.21	17801.27
459.427	17833.43
459.644	17862.45
459.86	17890.22
460.077	17931.45
460.294	17969.32
460.51	18011.71
460.727	18046.63
460.943	18079.38
461.16	18120.91
461.376	18159.16
461.593	18190.67
461.809	18233.83
462.026	18279.02
462.242	18321.09
462.459	18355.05
462.675	18396.52
462.892	18430.14
463.108	18479.14
463.324	18524.45
463.541	18560.92
463.757	18603.43
463.974	18648.36
464.19	18692.71
464.406	18742.29
464.623	18788.8
464.839	18840.02
465.055	18883.36
465.271	18935.43
465.488	18972.58
465.704	19023.54
465.92	19077.92
466.136	19129.63
466.353	19185.12
466.569	19232.12
466.785	19276.07
467.001	19329.42
467.217	19383.03
467.433	19437.56
467.649	19488.54
467.865	19550.89
468.082	19608.65
468.298	19663.45
468.514	19718.23
468.73	19774.42
468.946	19835.62
469.162	19909.2
469.378	19972.42
469.594	20035.98
469.81	20103.74
470.026	20169.34
470.242	20232.58
470.457	20295.11
470.673	20364.71
470.889	20437.82
471.105	20508.87
471.321	20574.38
471.537	20638.07
471.753	20709.94
471.968	20777.45
472.184	20849.38
472.4	20921.34
472.616	20995.74
472.832	21066
473.047	21137.89
473.263	21206.4
473.479	21279.47
473.694	21358.8
473.91	21433.49
474.126	21505.89
474.341	21585.91
474.557	21652.11
474.773	21719.69
474.988	21785.07
475.204	21861.11
475.42	21931.07
475.635	22000.42
475.851	22062.89
476.066	22133.58
476.282	22204.58
476.497	22271.14
476.713	22340.96
476.928	22414.74
477.144	22487.18
477.359	22558.47
477.575	22621.29
477.79	22688.09
478.005	22750.96
478.221	22821.56
478.436	22882.31
478.651	22934.38
478.867	22991.67
479.082	23036.25
479.297	23088.4
479.513	23141.49
479.728	23190.34
479.943	23244.87
480.159	23289.49
480.374	23344.34
480.589	23391.12
480.804	23444.92
481.019	23498.12
481.235	23547.87
481.45	23603.8
481.665	23653.91
481.88	23703.67
482.095	23759.12
482.31	23808.07
482.525	23858.31
482.741	23914.56
482.956	23964.29
483.171	24010
483.386	24062.42
483.601	24110.72
483.816	24161.18
484.031	24207.25
484.246	24254.71
484.461	24305.43
484.676	24346.52
484.891	24395.58
485.105	24432.12
485.32	24480.85
485.535	24519.02
485.75	24554
485.965	24587.69
486.18	24623.58
486.395	24670.6
486.609	24706.07
486.824	24746.49
487.039	24795.52
487.254	24828.02
487.469	24864.62
487.683	24907.42
487.898	24945.62
488.113	24987.6
488.327	25027.52
488.542	25067.74
488.757	25097.4
488.972	25138.51
489.186	25173.2
489.401	25211.69
489.615	25263.89
489.83	25306.23
490.045	25331.76
490.259	25371.52
490.474	25411.09
490.688	25448.16
490.903	25479.72
491.117	25515.91
491.332	25546.14
491.546	25568.52
491.761	25592.07
491.975	25612.4
492.19	25633.67
492.404	25663.4
492.618	25704.02
492.833	25725.54
493.047	25761.91
493.262	25794.78
493.476	25828.42
493.69	25859.94
493.905	25891.85
494.119	25915.96
494.333	25944.72
494.547	25983.74
494.762	26008.6
494.976	26023.38
495.19	26054.09
495.404	26077.54
495.619	26101.22
495.833	26126.25
496.047	26155.23
496.261	26168.74
496.475	26184.05
496.689	26197.11
496.903	26202.51
497.117	26209.38
497.332	26211.03
497.546	26208.12
497.76	26196.16
497.974	26186.2
498.188	26166.6
498.402	26146.31
498.616	26149.89
498.83	26148.12
499.044	26139.2
499.258	26127.96
499.472	26123.74
499.685	26129.14
499.899	26131.49
500.113	26147.12
500.327	26161.07
500.541	26181.58
500.755	26196.16
500.969	26204.98
501.183	26214.58
501.396	26240.47
501.61	26266.03
501.824	26291.2
502.038	26308.43
502.251	26331.11
502.465	26352.42
502.679	26374.92
502.892	26389.03
503.106	26404.42
503.32	26432.22
503.533	26455.63
503.747	26473.52
503.961	26488.07
504.174	26514.96
504.388	26537.16
504.602	26573.82
504.815	26598.32
505.029	26625.71
505.242	26670.38
505.456	26724.58
505.669	26760.23
505.883	26811.31
506.096	26867.4
506.31	26925.36
506.523	26972.49
506.736	27025.96
506.95	27071.65
507.163	27131.18
507.377	27191.45
507.59	27248.43
507.803	27310.25
508.017	27373.63
508.23	27431.09
508.443	27488.91
508.657	27547.31
508.87	27611.51
509.083	27682.8
509.296	27752.09
509.51	27826.05
509.723	27901.47
509.936	27985.82
510.149	28063.52
510.363	28150
510.576	28242.98
510.789	28331.4
511.002	28436.71
511.215	28539.2
511.428	28642.76
511.641	28743.49
511.854	28838.91
512.067	28939.54
512.28	29037.36
512.493	29139.49
512.707	29236.2
512.92	29333.4
513.132	29432.71
513.345	29526.65
513.558	29629.03
513.771	29729.98
513.984	29846.4
514.197	29950.89
514.41	30053.03
514.623	30160.32
514.836	30267.78
515.049	30382.72
515.262	30489.14
515.474	30594.23
515.687	30693.54
515.9	30792.22
516.113	30888.49
516.325	30977.65
516.538	31075.71
516.751	31172.51
516.964	31255.85
517.176	31340.38
517.389	31420.58
517.602	31505.94
517.814	31592.2
518.027	31679.23
518.24	31762.78
518.452	31844.38
518.665	31920.47
518.877	31999.83
519.09	32072.05
519.303	32148.72
519.515	32217.25
519.728	32284.83
519.94	32348.65
520.153	32408.45
520.365	32470.72
520.578	32540.47
520.79	32596.43
521.002	32654.18
521.215	32709.87
521.427	32768.82
521.64	32817.67
521.852	32870.78
522.064	32926.85
522.277	32977.34
522.489	33031.87
522.701	33090.25
522.914	33132.29
523.126	33182.94
523.338	33232.63
523.551	33289.94
523.763	33339.34
523.975	33397.92
524.187	33444.34
524.399	33487.74
524.612	33539.4
524.824	33584.05
525.036	33623.56
525.248	33659.65
525.46	33704.4
525.672	33740.87
525.884	33767.52
526.096	33803.42
526.308	33832.91
526.521	33879.49
526.733	33912.07
526.945	33944.76
527.157	33980.43
527.369	34007.12
527.581	34039.2
527.793	34071.51
528.004	34102.09
528.216	34129.47
528.428	34152.71
528.64	34174.89
528.852	34196.4
529.064	34231.76
529.276	34261.62
529.488	34284.05
529.699	34307.18
529.911	34327.6
530.123	34347.83
530.335	34374.05
530.547	34403.6
530.758	34449.03
530.97	34489.23
531.182	34511.76
531.393	34528.94
531.605	34555.29
531.817	34582.16
532.029	34612.02
532.24	34654.47
532.452	34685.87
532.663	34709
532.875	34736.56
533.087	34746.65
533.298	34766.49
533.51	34791.4
533.721	34822.02
533.933	34845.65
534.144	34866.07
534.356	34892.96
534.567	34908.74
534.779	34922.36
534.99	34937.16
535.202	34943.6
535.413	34967.31
535.624	34987.2
535.836	35001.29
536.047	35009.98
536.259	35018.12
536.47	35032.22
536.681	35034.32
536.893	35041.74
537.104	35055.96
537.315	35074.18
537.526	35096.11
537.738	35103.07
537.949	35113.62
538.16	35129.62
538.371	35155.56
538.582	35179.02
538.794	35200.92
539.005	35225.52
539.216	35248.31
539.427	35266.63
539.638	35285.29
539.849	35304.82
540.06	35320.85
540.272	35333.34
540.483	35339.98
540.694	35344.12
540.905	35351.49
541.116	35367.52
541.327	35380.82
541.538	35390.29
541.749	35399.51
541.96	35402.78
542.17	35410.22
542.381	35416.47
542.592	35423.31
542.803	35435.92
543.014	35448.63
543.225	35441.45
543.436	35434.47
543.647	35425.58
543.857	35431.98
544.068	35434.34
544.279	35447.62
544.49	35450.87
544.701	35461.71
544.911	35474.72
545.122	35483.45
545.333	35480.67
545.543	35508.89
545.754	35522.69
545.965	35550.54
546.175	35560.2
546.386	35578.56
546.597	35587.18
546.807	35607.16
547.018	35620.69
547.229	35612.38
547.439	35615.29
547.65	35632.91
547.86	35637.67
548.071	35649.31
548.281	35645.02
548.492	35646.02
548.702	35653.69
548.913	35664.89
549.123	35657.94
549.333	35662.67
549.544	35679.32
549.754	35688.65
549.965	35697.23
550.175	35705
550.385	35709.32
550.596	35724.92
550.806	35740.38
551.016	35746.12
551.227	35745.34
551.437	35760.16
551.647	35768.52
551.857	35781.05
552.068	35794.07
552.278	35806.05
552.488	35808.4
552.698	35815.23
552.908	35820.11
553.119	35818.72
553.329	35812.47
553.539	35812.4
553.749	35813.89
553.959	35802.94
554.169	35793.14
554.379	35791.22
554.589	35779.02
554.799	35778.07
555.009	35772.38
555.219	35772.11
555.429	35769.76
555.639	35767.02
555.849	35762.03
556.059	35751.32
556.269	35755.03
556.479	35760.67
556.689	35748.52
556.899	35743.78
557.109	35745.03
557.319	35744.65
557.528	35746.45
557.738	35752.71
557.948	35745.32
558.158	35750.25
558.368	35747.85
558.577	35739.14
558.787	35724.69
558.997	35726.36
559.207	35714.52
559.416	35699.18
559.626	35697.34
559.836	35680.72
560.045	35661.82
560.255	35667.6
560.465	35662.62
560.674	35657.72
560.884	35654.82
561.093	35644.29
561.303	35626.56
561.512	35617.6
561.722	35604.83
561.932	35589.38
562.141	35579.62
562.351	35574.4
562.56	35559.02
562.769	35557.02
562.979	35557.58
563.188	35548.52
563.398	35550.94
563.607	35551.25
563.817	35554.12
564.026	35551.49
564.235	35542.98
564.445	35540.25
564.654	35533.51
564.863	35525.03
565.073	35504.42
565.282	35481.67
565.491	35465.63
565.7	35450.07
565.91	35435.31
566.119	35412.76
566.328	35405.52
566.537	35391.07
566.746	35373.22
566.956	35355.6
567.165	35346.47
567.374	35337.02
567.583	35324.07
567.792	35315.85
568.001	35299.72
568.21	35274.22
568.419	35261.52
568.628	35232.65
568.837	35206.34
569.046	35180.6
569.255	35147.72
569.464	35120.34
569.673	35086.36
569.882	35062.23
570.091	35036.11
570.3	35013.31
570.509	35002.83
570.718	34980.63
570.927	34968.27
571.135	34963.02
571.344	34952.94
571.553	34945.65
571.762	34939.87
571.971	34934.03
572.18	34919.85
572.388	34897.94
572.597	34867.12
572.806	34840.18
573.014	34823.11
573.223	34791.16
573.432	34755.25
573.641	34729.09
573.849	34703.4
574.058	34673.51
574.266	34646.8
574.475	34623.87
574.684	34610.85
574.892	34608.83
575.101	34592.14
575.309	34570.27
575.518	34555.92
575.726	34541.45
575.935	34517.51
576.143	34491.32
576.352	34470.42
576.56	34443.4
576.769	34429.85
576.977	34408.43
577.186	34379.09
577.394	34357.67
577.602	34336.36
577.811	34313.71
578.019	34293.82
578.228	34287.87
578.436	34274.58
578.644	34242.83
578.852	34227.49
579.061	34203.16
579.269	34173.71
579.477	34150.54
579.685	34135.8
579.894	34109.49
580.102	34089.71
580.31	34070.07
580.518	34035.87
580.726	34015.67
580.935	33998.52
581.143	33975.8
581.351	33952.65
581.559	33930.45
581.767	33914.25
581.975	33889.45
582.183	33869.4
582.391	33844.98
582.599	33820.25
582.807	33795.43
583.015	33772.22
583.223	33751.29
583.431	33728.85
583.639	33694.76
583.847	33672.92
584.055	33644.2
584.263	33622.05
584.471	33600.91
584.678	33578.09
584.886	33553.98
585.094	33533.91
585.302	33511.91
585.51	33492.2
585.718	33460.92
585.925	33443.12
586.133	33421.6
586.341	33397.52
586.549	33379.52
586.756	33349.56
586.964	33316.69
587.172	33286
587.379	33257.56
587.587	33230.45
587.795	33199.4
588.002	33178.42
588.21	33147
588.417	33115.22
588.625	33082.67
588.833	33041.03
589.04	33019.82
589.248	33001.65
589.455	32972.87
589.663	32946.54
589.87	32914.22
590.078	32889.49
590.285	32854.2
590.492	32824.22
590.7	32802.16
590.907	32775
591.115	32744.92
591.322	32717.65
591.529	32692.94
591.737	32668.94
591.944	32637.71
592.151	32606.03
592.359	32573.91
592.566	32540.87
592.773	32514.45
592.981	32476.2
593.188	32449.12
593.395	32425.63
593.602	32391.92
593.809	32359.76
594.017	32329.32
594.224	32300.25
594.431	32272.49
594.638	32228.54
594.845	32197.42
595.052	32173.11
595.259	32149.67
595.466	32116.25
595.673	32090.07
595.88	32066.82
596.088	32049.62
596.295	32022.98
596.502	31995.02
596.709	31966.82
596.915	31948.89
597.122	31933.16
597.329	31901.43
597.536	31868.65
597.743	31853.23
597.95	31819.92
598.157	31775.62
598.364	31719.32
598.571	31672.72
598.777	31616.42
598.984	31571.54
599.191	31521.98
599.398	31459.71
599.605	31406.6
599.811	31351.12
600.018	31278.02
600.225	31221.03
600.431	31167.51
600.638	31123.58
600.845	31091.94
601.052	31069.76
601.258	31030.54
601.465	30989.43
601.671	30938.51
601.878	30863.71
602.085	30778.65
602.291	30689.83
602.498	30568.49
602.704	30427.98
602.911	30271.34
603.117	30085.56
603.324	29880.63
603.53	29657.32
603.737	29415.94
603.943	29180.94
604.15	28948.38
604.356	28704
604.562	28450.09
604.769	28190.89
604.975	27940.6
605.181	27680.14
605.388	27422.31
605.594	27157.91
605.8	26903.12
606.007	26651.67
606.213	26391.78
606.419	26116.52
606.625	25848.05
606.832	25582.52
607.038	25327.29
607.244	25060.42
607.45	24798.78
607.656	24528.27
607.863	24268.49
608.069	23998.14
608.275	23727.36
608.481	23454.89
608.687	23193.29
608.893	22925.31
609.099	22647.87
609.305	22369.8
609.511	22099.98
609.717	21822.76
609.923	21541.36
610.129	21249.43
610.335	20960.67
610.541	20668.71
610.747	20375
610.953	20076.16
611.159	19776.8
611.365	19482.18
611.571	19177.62
611.776	18866.98
611.982	18554.38
612.188	18245.85
612.394	17939.29
612.6	17633.43
612.806	17327.85
613.011	17017.11
613.217	16711.69
613.423	16406.74
613.628	16106.07
613.834	15810.03
614.04	15516.69
614.246	15226.94
614.451	14938.09
614.657	14660.58
614.862	14389.25
615.068	14120.36
615.274	13858.92
615.479	13600.71
615.685	13351.54
615.89	13103.92
616.096	12864.23
616.301	12616.62
616.507	12364.87
616.712	12123.16
616.918	11872.25
617.123	11620.91
617.329	11366.02
617.534	11108.47
617.74	10846.54
617.945	10580.2
618.15	10297.98
618.356	9858.09
618.561	9068
618.766	8114.8
618.972	7127.09
619.177	6164.52
619.382	5221.98
619.588	4309
619.793	3765.27
619.998	3128.37
620.203	2364.76
620.408	1439.6
620.614	533.43
