Data from test1_MAYP1115451__88__10-17-39-084.txt Node

Date: Wed Jun 12 10:17:39 MDT 2024
User: Modes Lab
Spectrometer: MAYP111545
Trigger mode: 0
Integration Time (sec): 8.000000E-3
Scans to average: 5
Electric dark correction enabled: true
Nonlinearity correction enabled: false
Boxcar width: 5
XAxis mode: Wavelengths
Number of Pixels in Spectrum: 2068
>>>>>Begin Spectral Data<<<<<
165.214	165.53
165.449	165.12
165.683	173.66
165.918	182.68
166.152	189.59
166.387	194.62
166.621	126.89
166.856	165.67
167.09	184.32
167.325	207.96
167.559	223.52
167.794	237.52
168.028	245.38
168.263	246.52
168.497	246
168.732	246.07
168.966	248.4
169.2	248.67
169.435	250.42
169.669	251.92
169.903	253.89
170.138	256.12
170.372	257.96
170.606	259.25
170.841	260.94
171.075	262.07
171.309	263.71
171.544	263.2
171.778	266.27
172.012	267.42
172.246	268.91
172.48	269.85
172.715	271.51
172.949	273.43
173.183	275.67
173.417	277.63
173.651	280.11
173.885	281.45
174.119	283.09
174.354	283.16
174.588	283.25
174.822	283.45
175.056	283.6
175.29	283.83
175.524	283.45
175.758	283.31
175.992	283.11
176.226	282.71
176.46	283.18
176.694	284.18
176.928	285.14
177.162	286.32
177.396	286.43
177.63	287.74
177.864	288.36
178.097	289.82
178.331	290.36
178.565	291.71
178.799	292.34
179.033	293.23
179.267	293.78
179.5	293.8
179.734	294.69
179.968	296.6
180.202	297.16
180.436	299.03
180.669	299.65
180.903	300.51
181.137	301.63
181.371	302.67
181.604	303.23
181.838	304.31
182.072	306.11
182.305	307.16
182.539	308.42
182.772	309.52
183.006	310.29
183.24	311.14
183.473	314.83
183.707	316.32
183.94	317.96
184.174	319.25
184.408	319.91
184.641	321.34
184.875	321.78
185.108	322.56
185.342	324
185.575	323.34
185.808	325.03
186.042	323.69
186.275	324.18
186.509	325.87
186.742	327.34
186.976	328.71
187.209	329.38
187.442	331.82
187.676	332.8
187.909	333.36
188.142	336.23
188.376	336.74
188.609	338.52
188.842	340.69
189.076	341.72
189.309	342.82
189.542	344.89
189.775	347.34
190.009	349.05
190.242	351.05
190.475	354.62
190.708	356.63
190.941	359.56
191.174	360.2
191.408	361.49
191.641	363.11
191.874	365.31
192.107	367.29
192.34	368.67
192.573	370.09
192.806	371.91
193.039	372.18
193.272	373.94
193.505	374.98
193.738	377.76
193.971	379.52
194.204	380.74
194.437	381.87
194.67	383.02
194.903	384.52
195.136	386.38
195.369	387.78
195.602	389.36
195.835	391.22
196.068	393.72
196.301	395.6
196.533	396.52
196.766	399.05
196.999	402.69
197.232	405.32
197.465	407.38
197.698	409.32
197.93	411.42
198.163	413.76
198.396	416.25
198.629	417.47
198.861	419.91
199.094	423.14
199.327	425.11
199.559	425.71
199.792	427.65
200.025	428.56
200.257	430.58
200.49	432.96
200.723	434.54
200.955	436.82
201.188	439.67
201.42	441.47
201.653	443.94
201.886	446.18
202.118	447.69
202.351	449
202.583	452.12
202.816	453.47
203.048	455.69
203.281	459.4
203.513	460.29
203.745	462.92
203.978	465.02
204.21	466.72
204.443	469.76
204.675	472.71
204.907	475.49
205.14	477.8
205.372	481.14
205.605	483.4
205.837	484.63
206.069	487.32
206.302	488.83
206.534	491.32
206.766	492.89
206.998	494.45
207.231	497.34
207.463	500.31
207.695	503.69
207.927	505.23
208.159	507.45
208.392	510.96
208.624	513.25
208.856	514.83
209.088	516.18
209.32	518.2
209.552	520.36
209.784	522.94
210.017	524.36
210.249	524.69
210.481	526.51
210.713	528.4
210.945	528.58
211.177	530.07
211.409	532.07
211.641	534.6
211.873	537.71
212.105	540.25
212.337	540.91
212.569	541.83
212.801	544.58
213.033	547.25
213.264	548.4
213.496	551.62
213.728	553.36
213.96	555.76
214.192	558.07
214.424	559.18
214.656	561.23
214.887	562.91
215.119	566.25
215.351	567.51
215.583	569.36
215.815	571.82
216.046	572.12
216.278	574.6
216.51	575.85
216.741	576.63
216.973	578.69
217.205	579.47
217.436	581.23
217.668	582.96
217.9	584.71
218.131	584.67
218.363	585.94
218.595	588.63
218.826	590.27
219.058	591.29
219.289	592.47
219.521	591.91
219.752	592.89
219.984	593.83
220.215	594.63
220.447	595.78
220.678	597.83
220.91	599.36
221.141	600.36
221.373	600.31
221.604	600.96
221.836	603.32
222.067	605.78
222.298	606.65
222.53	608.72
222.761	608.42
222.993	609.47
223.224	610.58
223.455	610.31
223.686	610.6
223.918	611.2
224.149	613.6
224.38	613.54
224.612	613.02
224.843	613.52
225.074	613.42
225.305	614.6
225.536	615.14
225.768	615.54
225.999	617.62
226.23	617.8
226.461	619.51
226.692	619.38
226.923	619.49
227.155	622.51
227.386	623.58
227.617	624.16
227.848	624.38
228.079	625.56
228.31	625.29
228.541	625.87
228.772	627.05
229.003	626.87
229.234	626.51
229.465	626.94
229.696	625.78
229.927	624.74
230.158	625.31
230.389	624.8
230.62	624.6
230.85	626.78
231.081	625.45
231.312	624.49
231.543	624.18
231.774	625.22
232.005	627.07
232.236	626.52
232.466	627.16
232.697	627.25
232.928	628.22
233.159	628.6
233.389	627.87
233.62	629.11
233.851	629.18
234.082	628.96
234.312	628.83
234.543	626.71
234.774	626.87
235.004	627.63
235.235	626.76
235.466	626.94
235.696	626.2
235.927	625.8
236.157	625.22
236.388	626.4
236.618	626.34
236.849	625.51
237.08	626.4
237.31	626.96
237.541	626.91
237.771	626.69
238.002	625.52
238.232	625.43
238.463	624.69
238.693	624.83
238.923	622.96
239.154	623.05
239.384	622.78
239.615	621.4
239.845	620.12
240.075	618.32
240.306	617.07
240.536	617.03
240.766	616.45
240.997	615.96
241.227	615.52
241.457	614.42
241.687	613.6
241.918	612.83
242.148	613.69
242.378	613.78
242.608	614.32
242.839	614.72
243.069	614.83
243.299	613.74
243.529	614.42
243.759	613.45
243.989	614.89
244.22	614.02
244.45	613.45
244.68	612.12
244.91	611.98
245.14	610.76
245.37	610.74
245.6	609.4
245.83	608.58
246.06	606.8
246.29	606.96
246.52	605.32
246.75	605.36
246.98	604.63
247.21	603.8
247.44	602.76
247.67	601.98
247.9	600.91
248.13	600.45
248.359	600.45
248.589	600.49
248.819	598.76
249.049	598.92
249.279	599.25
249.509	599.09
249.738	598.25
249.968	597.18
250.198	597.4
250.428	596.69
250.657	595.43
250.887	594.72
251.117	593.47
251.347	592.4
251.576	590.54
251.806	589.11
252.036	588.52
252.265	588.07
252.495	587.65
252.725	586.58
252.954	586.18
253.184	586.62
253.413	586.71
253.643	586.2
253.873	586.22
254.102	587
254.332	586.18
254.561	586.36
254.791	585.89
255.02	585.82
255.25	584.94
255.479	585.09
255.708	584.43
255.938	584.27
256.167	584.22
256.397	583.54
256.626	582.09
256.856	581.89
257.085	581.62
257.314	580.72
257.544	580.54
257.773	580.25
258.002	578.05
258.232	578.03
258.461	575.23
258.69	573.74
258.919	573.34
259.149	573.45
259.378	572.82
259.607	571.74
259.836	571.27
260.065	571
260.295	570.34
260.524	570.52
260.753	568.42
260.982	568.34
261.211	568.49
261.44	567.49
261.669	565.11
261.899	564.94
262.128	563.74
262.357	562.8
262.586	561.76
262.815	560.8
263.044	559.74
263.273	563.6
263.502	563.38
263.731	563.03
263.96	562.23
264.189	562.98
264.418	561.29
264.646	559.23
264.875	557.92
265.104	555.72
265.333	555.52
265.562	555.23
265.791	550.27
266.02	548.65
266.249	547.25
266.477	546.11
266.706	543.72
266.935	543.34
267.164	543.47
267.393	543.65
267.621	543.51
267.85	541.87
268.079	541.82
268.307	541.02
268.536	540.32
268.765	539.29
268.993	539.18
269.222	539.91
269.451	538.91
269.679	539.16
269.908	538.96
270.137	539.12
270.365	540.45
270.594	539.74
270.822	541.78
271.051	541.91
271.279	542.91
271.508	543.85
271.736	544.63
271.965	545.31
272.193	545.27
272.422	545.54
272.65	545.65
272.879	544.14
273.107	543.82
273.336	542.16
273.564	542.62
273.792	540.78
274.021	539.14
274.249	536.92
274.477	534.94
274.706	534.2
274.934	532.52
275.162	530.83
275.391	530.52
275.619	529.83
275.847	529.25
276.075	528
276.304	527.89
276.532	527.54
276.76	527.18
276.988	526.42
277.216	525.47
277.445	523.6
277.673	522.58
277.901	522.32
278.129	520.11
278.357	518.18
278.585	518.09
278.813	516.98
279.041	516.65
279.269	517.23
279.497	517.72
279.725	516.78
279.954	517.89
280.182	517.09
280.41	515.45
280.637	514.82
280.865	514.38
281.093	513.74
281.321	513.76
281.549	512.09
281.777	512.14
282.005	512.03
282.233	511.54
282.461	509.71
282.689	509.71
282.916	509.91
283.144	510.31
283.372	510.16
283.6	510.23
283.828	508.62
284.055	508.62
284.283	506.62
284.511	505.05
284.739	504.22
284.966	504.34
285.194	504.56
285.422	503.49
285.649	502.27
285.877	500.92
286.105	499.14
286.332	499.03
286.56	499.91
286.788	499.34
287.015	499.22
287.243	499.34
287.47	499.22
287.698	498.56
287.925	498.71
288.153	499.14
288.381	500.52
288.608	499.31
288.836	499.22
289.063	498.02
289.29	497.62
289.518	497.29
289.745	496.67
289.973	495.89
290.2	495.07
290.428	494.2
290.655	494.09
290.882	492.45
291.11	492.74
291.337	492.76
291.564	492.2
291.792	490.71
292.019	491.62
292.246	491.27
292.473	491.03
292.701	490.87
292.928	490.51
293.155	489.42
293.382	489.65
293.61	489.72
293.837	487.45
294.064	486.42
294.291	485.78
294.518	484.05
294.745	481.94
294.972	481.98
295.2	480.92
295.427	480.96
295.654	480.82
295.881	479.05
296.108	478.31
296.335	478.74
296.562	478.03
296.789	478.12
297.016	477.12
297.243	477.6
297.47	476.43
297.697	475.62
297.924	473.54
298.151	471.96
298.378	471.56
298.604	470.56
298.831	470.47
299.058	469.92
299.285	468.83
299.512	467.8
299.739	468.25
299.966	468.45
300.192	468.72
300.419	469.47
300.646	469.23
300.873	468.25
301.099	467.34
301.326	466.74
301.553	466.22
301.78	467.92
302.006	468.54
302.233	467.14
302.46	465.56
302.686	466.12
302.913	464.98
303.14	464.34
303.366	465.05
303.593	465.6
303.819	465.6
304.046	465.23
304.272	464.25
304.499	463.43
304.725	463.4
304.952	463.14
305.179	461.34
305.405	461.92
305.631	462.56
305.858	462.29
306.084	461.83
306.311	461.43
306.537	461.32
306.764	460.02
306.99	460.12
307.216	460.23
307.443	459.91
307.669	459.27
307.895	458.02
308.122	457.72
308.348	457.27
308.574	456.11
308.801	455.23
309.027	455.89
309.253	456.58
309.479	455.23
309.706	454.96
309.932	455.14
310.158	455.65
310.384	455.85
310.61	455.14
310.837	455.98
311.063	456.27
311.289	456.51
311.515	455.16
311.741	454.31
311.967	454.74
312.193	454.8
312.419	455.14
312.645	453.98
312.871	453.51
313.097	453.09
313.323	452.51
313.549	453.76
313.775	453.78
314.001	453.8
314.227	454.78
314.453	454.96
314.679	454.85
314.905	455.18
315.131	454.76
315.357	455.76
315.583	455.78
315.809	454.07
316.034	453.25
316.26	454.45
316.486	456.12
316.712	456.85
316.938	457.2
317.163	457.62
317.389	458.47
317.615	460.45
317.841	459.92
318.066	461.8
318.292	464.25
318.518	465.27
318.743	465.54
318.969	465.43
319.195	464.67
319.42	464.83
319.646	465.29
319.872	464.92
320.097	465.63
320.323	467.36
320.548	468.74
320.774	469.82
320.999	470.02
321.225	471.25
321.45	472.87
321.676	474.14
321.901	475.69
322.127	476.96
322.352	477.51
322.578	478.98
322.803	480.27
323.029	481.16
323.254	482.58
323.479	484.32
323.705	485.43
323.93	487.18
324.155	489.78
324.381	491.76
324.606	493.52
324.831	497.05
325.057	498.82
325.282	501.14
325.507	503.05
325.732	505.25
325.958	507.85
326.183	508.74
326.408	510.83
326.633	512.98
326.858	515.76
327.084	518.76
327.309	521.31
327.534	522.8
327.759	524.42
327.984	528.14
328.209	530.87
328.434	534.51
328.659	538.67
328.884	542.22
329.109	545.07
329.334	547.8
329.559	551.4
329.784	554.45
330.009	559.65
330.234	563.38
330.459	566.29
330.684	569.87
330.909	572.92
331.134	576.92
331.359	579.34
331.584	583.11
331.809	587.52
332.034	591.45
332.259	595.74
332.483	598.2
332.708	602.83
332.933	607.14
333.158	611.38
333.383	615.56
333.607	620.14
333.832	624.23
334.057	630.72
334.282	636.65
334.506	640.94
334.731	645.22
334.956	652.42
335.18	658.82
335.405	663.71
335.63	669.69
335.854	675.51
336.079	682.05
336.303	689.43
336.528	693.74
336.753	698.38
336.977	705.03
337.202	710.12
337.426	716.05
337.651	721.14
337.875	727.63
338.1	734.23
338.324	740.4
338.549	746.82
338.773	754.07
338.997	761.4
339.222	768.16
339.446	775.4
339.671	785.45
339.895	791.05
340.119	799.52
340.344	809
340.568	816.03
340.792	824.4
341.017	831.11
341.241	838.4
341.465	844.49
341.689	852.87
341.914	860.65
342.138	867.89
342.362	877.22
342.586	884.36
342.811	890.82
343.035	899.25
343.259	907.67
343.483	916.18
343.707	926.38
343.931	938.78
344.155	947.65
344.38	956.16
344.604	964.71
344.828	974.62
345.052	985.62
345.276	994.85
345.5	1004.51
345.724	1015.03
345.948	1027.78
346.172	1035.6
346.396	1042.54
346.62	1053.14
346.844	1063.85
347.068	1075.12
347.292	1085.58
347.515	1094.82
347.739	1106
347.963	1116.07
348.187	1125.23
348.411	1132.16
348.635	1142.2
348.859	1151.8
349.082	1161.52
349.306	1172.32
349.53	1183.58
349.754	1194.51
349.977	1204.47
350.201	1214.52
350.425	1224.85
350.649	1237.54
350.872	1249.62
351.096	1261.07
351.32	1274.43
351.543	1286.74
351.767	1298.56
351.99	1308.47
352.214	1319.03
352.438	1331.18
352.661	1342.54
352.885	1354.36
353.108	1364.45
353.332	1373.52
353.555	1385.94
353.779	1396.2
354.002	1406.05
354.226	1414.92
354.449	1426.91
354.673	1436.38
354.896	1448.07
355.12	1461.05
355.343	1472.89
355.566	1486.56
355.79	1499.89
356.013	1512.05
356.237	1525.03
356.46	1537.42
356.683	1550.67
356.907	1562.32
357.13	1577.32
357.353	1589.89
357.576	1602.02
357.8	1616
358.023	1626.49
358.246	1639.74
358.469	1651.76
358.693	1663.94
358.916	1676.18
359.139	1690.12
359.362	1703.87
359.585	1713.78
359.808	1727.11
360.031	1738.23
360.255	1751.67
360.478	1764.6
360.701	1777.22
360.924	1789.4
361.147	1803.62
361.37	1819.25
361.593	1833.31
361.816	1845.69
362.039	1861.62
362.262	1874.71
362.485	1888.51
362.708	1899.23
362.931	1913.72
363.154	1928.87
363.377	1942.02
363.599	1954.8
363.822	1969.12
364.045	1982.16
364.268	1996.25
364.491	2009.03
364.714	2022.85
364.936	2038.18
365.159	2053.32
365.382	2066.71
365.605	2081.82
365.828	2100.76
366.05	2114.71
366.273	2129.42
366.496	2144.94
366.718	2157.78
366.941	2174.91
367.164	2189.09
367.386	2205.62
367.609	2223.67
367.832	2240.12
368.054	2255.78
368.277	2266.82
368.5	2284.76
368.722	2297.67
368.945	2313.65
369.167	2334.36
369.39	2349.74
369.612	2368.36
369.835	2385.42
370.057	2400.65
370.28	2417.2
370.502	2432.56
370.725	2453.18
370.947	2469.09
371.169	2490.03
371.392	2506.78
371.614	2523.18
371.837	2540.62
372.059	2556.02
372.281	2572.07
372.504	2588.92
372.726	2604.54
372.948	2620.74
373.171	2636.47
373.393	2654.18
373.615	2668.76
373.837	2685.74
374.06	2702.43
374.282	2718.78
374.504	2737.03
374.726	2753.8
374.948	2771.96
375.17	2792.32
375.393	2813.87
375.615	2834.18
375.837	2854.12
376.059	2873.36
376.281	2890.72
376.503	2909.32
376.725	2932.16
376.947	2951.78
377.169	2973.03
377.391	2993.36
377.613	3012.8
377.835	3033.74
378.057	3052.63
378.279	3073.07
378.501	3093.96
378.723	3116.31
378.945	3136.22
379.167	3158.09
379.389	3183.12
379.611	3206.14
379.833	3226.56
380.054	3250.91
380.276	3272.36
380.498	3295.36
380.72	3320.87
380.942	3345.89
381.163	3373
381.385	3399.85
381.607	3419.94
381.829	3445.12
382.05	3468.63
382.272	3494.02
382.494	3518.22
382.716	3540.71
382.937	3564.36
383.159	3589.38
383.381	3615.58
383.602	3641.74
383.824	3667.85
384.045	3695.43
384.267	3720.16
384.488	3746.34
384.71	3770.6
384.932	3796.34
385.153	3824.45
385.375	3852.49
385.596	3876.69
385.818	3903.32
386.039	3927
386.261	3954.62
386.482	3981.14
386.703	4005.22
386.925	4033.83
387.146	4063.85
387.368	4089.83
387.589	4116.87
387.81	4146.43
388.032	4177.4
388.253	4206.65
388.474	4234.27
388.696	4261.54
388.917	4290.34
389.138	4320.8
389.359	4348.51
389.581	4380.02
389.802	4411.96
390.023	4442.6
390.244	4472.34
390.465	4500.96
390.687	4531.12
390.908	4562.18
391.129	4593.8
391.35	4623.92
391.571	4656.43
391.792	4686.29
392.013	4716.09
392.234	4749.78
392.455	4781.29
392.677	4812.18
392.898	4840.18
393.119	4872.6
393.34	4903.51
393.561	4933.49
393.782	4967.52
394.003	5000.29
394.223	5031.09
394.444	5063.82
394.665	5091.25
394.886	5122.78
395.107	5157.67
395.328	5193.69
395.549	5221.22
395.77	5256.18
395.99	5288.43
396.211	5322.45
396.432	5353.27
396.653	5390.76
396.874	5424.63
397.094	5458.51
397.315	5491.02
397.536	5520.27
397.757	5555.45
397.977	5593.4
398.198	5625.12
398.419	5660.6
398.639	5691.96
398.86	5723.14
399.081	5752.23
399.301	5787.62
399.522	5820.11
399.742	5853.69
399.963	5891.02
400.184	5920.6
400.404	5953.71
400.625	5986.09
400.845	6019.85
401.066	6054.62
401.286	6092.12
401.507	6127.22
401.727	6156.54
401.948	6189.65
402.168	6229.63
402.388	6261.67
402.609	6297.92
402.829	6329.72
403.05	6368.38
403.27	6404.32
403.49	6439.36
403.711	6474.83
403.931	6511.52
404.151	6548.98
404.372	6581.78
404.592	6613.69
404.812	6648.31
405.032	6682.8
405.253	6716.92
405.473	6748.03
405.693	6780.58
405.913	6813.54
406.133	6845.29
406.353	6881.56
406.574	6917.2
406.794	6956.29
407.014	6989.69
407.234	7025.05
407.454	7060.14
407.674	7098.12
407.894	7131.74
408.114	7167.76
408.334	7204.74
408.554	7244.58
408.774	7278.36
408.994	7313.23
409.214	7352.71
409.434	7391.87
409.654	7426.78
409.874	7464.65
410.094	7501.29
410.314	7540.91
410.534	7578.54
410.754	7616.69
410.974	7652.43
411.193	7694.49
411.413	7731.6
411.633	7764.8
411.853	7800.85
412.073	7840.42
412.292	7875.2
412.512	7913.8
412.732	7954.16
412.952	7999.23
413.171	8035.78
413.391	8072.18
413.611	8109.09
413.831	8147.27
414.05	8194.98
414.27	8237.16
414.489	8277.34
414.709	8324.31
414.929	8371.85
415.148	8412.51
415.368	8451.67
415.587	8497.38
415.807	8543.63
416.026	8590.89
416.246	8640.51
416.465	8681.34
416.685	8724.34
416.904	8768.82
417.124	8816.43
417.343	8853.62
417.563	8898.11
417.782	8940.4
418.002	8988.58
418.221	9030.54
418.44	9071.96
418.66	9118.02
418.879	9164.49
419.098	9207.11
419.318	9252.74
419.537	9291.09
419.756	9338.89
419.976	9383.63
420.195	9426.09
420.414	9466.12
420.633	9511.71
420.853	9557.38
421.072	9593.36
421.291	9637.91
421.51	9687.85
421.729	9733.62
421.948	9779.62
422.168	9815.96
422.387	9862.74
422.606	9905.18
422.825	9950.11
423.044	9991.82
423.263	10035.83
423.482	10081.49
423.701	10123.03
423.92	10164.76
424.139	10204.31
424.358	10251.18
424.577	10304.38
424.796	10347.69
425.015	10397.25
425.234	10449.02
425.453	10501.52
425.672	10545.31
425.891	10590.67
426.11	10639.92
426.328	10682.11
426.547	10732.91
426.766	10776.38
426.985	10825.54
427.204	10873.09
427.422	10919.45
427.641	10961.2
427.86	11005.78
428.079	11053.38
428.297	11103.87
428.516	11153.98
428.735	11206.54
428.954	11256.85
429.172	11305.62
429.391	11354.36
429.61	11402.54
429.828	11448.38
430.047	11494.43
430.265	11534.05
430.484	11580.12
430.703	11629.67
430.921	11671.63
431.14	11716.94
431.358	11761.56
431.577	11801.87
431.795	11844.09
432.014	11892.32
432.232	11940.11
432.451	11989.65
432.669	12044.07
432.887	12092.07
433.106	12140.92
433.324	12191.76
433.543	12239.76
433.761	12286.43
433.979	12342.69
434.198	12389.4
434.416	12438.11
434.634	12490.03
434.853	12536.92
435.071	12584.96
435.289	12629.02
435.507	12673.31
435.726	12715.63
435.944	12762.36
436.162	12808.51
436.38	12853.87
436.598	12901.29
436.817	12944.29
437.035	12987.16
437.253	13033.43
437.471	13082.25
437.689	13137.14
437.907	13183.27
438.125	13229.38
438.343	13276.85
438.561	13323.67
438.78	13366.4
438.998	13418.43
439.216	13466.71
439.434	13511.45
439.652	13562.2
439.869	13608.32
440.087	13650.09
440.305	13702.65
440.523	13749.22
440.741	13798.27
440.959	13851.96
441.177	13900.42
441.395	13938.36
441.613	13984.51
441.831	14035.56
442.048	14079.94
442.266	14126.56
442.484	14171.52
442.702	14217.36
442.919	14265.72
443.137	14312.47
443.355	14363.96
443.573	14410.43
443.79	14466.38
444.008	14518
444.226	14566.42
444.443	14616
444.661	14663.36
444.879	14713.38
445.096	14762.4
445.314	14817.65
445.532	14864.71
445.749	14909.82
445.967	14956.25
446.184	15001.94
446.402	15049.02
446.619	15092.2
446.837	15138.11
447.054	15188.72
447.272	15236.54
447.489	15280.34
447.707	15321.69
447.924	15370.94
448.141	15411.49
448.359	15469.05
448.576	15519.47
448.794	15572.67
449.011	15632.54
449.228	15675.02
449.446	15722.62
449.663	15776.69
449.88	15824.63
450.098	15877.02
450.315	15922.51
450.532	15975.63
450.749	16019.07
450.967	16060.87
451.184	16098.52
451.401	16140.91
451.618	16194.82
451.835	16238.09
452.052	16282.18
452.27	16332.87
452.487	16378.83
452.704	16426.69
452.921	16468.91
453.138	16517.96
453.355	16566.47
453.572	16625.62
453.789	16673.22
454.006	16720.42
454.223	16773.72
454.44	16820.29
454.657	16864.47
454.874	16915.52
455.091	16966.63
455.308	17014.23
455.525	17064.8
455.742	17117.4
455.959	17155.29
456.176	17199.69
456.393	17250.25
456.609	17296.29
456.826	17343.51
457.043	17396.92
457.26	17437.23
457.477	17480.51
457.693	17529.67
457.91	17571.56
458.127	17611.25
458.344	17649.09
458.56	17692.31
458.777	17727.16
458.994	17767.49
459.21	17805.09
459.427	17833.72
459.644	17868.4
459.86	17898.09
460.077	17933.18
460.294	17970.07
460.51	18012.63
460.727	18053.62
460.943	18087.67
461.16	18127.56
461.376	18159.23
461.593	18202.16
461.809	18244.51
462.026	18281.32
462.242	18327.8
462.459	18366.52
462.675	18406.49
462.892	18441.58
463.108	18487
463.324	18531.74
463.541	18576.54
463.757	18619.96
463.974	18653.02
464.19	18697.85
464.406	18752.29
464.623	18794.94
464.839	18840.12
465.055	18886.96
465.271	18933.65
465.488	18975.82
465.704	19019.63
465.92	19065.05
466.136	19118.4
466.353	19176.4
466.569	19221.98
466.785	19270.89
467.001	19320.83
467.217	19374
467.433	19426.11
467.649	19483.02
467.865	19547.52
468.082	19617.18
468.298	19676.36
468.514	19735.23
468.73	19796.74
468.946	19861.05
469.162	19925.29
469.378	19997.05
469.594	20064.69
469.81	20127.34
470.026	20193.94
470.242	20255.52
470.457	20314.11
470.673	20374.82
470.889	20445.51
471.105	20510.72
471.321	20579.56
471.537	20650.2
471.753	20717.42
471.968	20786.71
472.184	20854.07
472.4	20923.87
472.616	20994.71
472.832	21065.12
473.047	21139.2
473.263	21205.89
473.479	21286.91
473.694	21366.82
473.91	21434.54
474.126	21499.02
474.341	21568.98
474.557	21647.27
474.773	21711.62
474.988	21784.4
475.204	21858.23
475.42	21928.23
475.635	22004.92
475.851	22072.22
476.066	22136.36
476.282	22206.96
476.497	22290.52
476.713	22362.65
476.928	22434.52
477.144	22507.22
477.359	22570.23
477.575	22633.14
477.79	22699.78
478.005	22757.02
478.221	22814.8
478.436	22877
478.651	22932.63
478.867	22988.94
479.082	23045.8
479.297	23098.52
479.513	23161.52
479.728	23217.83
479.943	23270.36
480.159	23322.8
480.374	23378.16
480.589	23426.34
480.804	23472.62
481.019	23529.49
481.235	23571.11
481.45	23616.72
481.665	23662.05
481.88	23703.62
482.095	23755.76
482.31	23804.8
482.525	23854.54
482.741	23895.94
482.956	23950.34
483.171	24006.72
483.386	24055.94
483.601	24109.82
483.816	24159.82
484.031	24205.94
484.246	24260.89
484.461	24300.82
484.676	24347.12
484.891	24388.69
485.105	24437.12
485.32	24479.96
485.535	24514.85
485.75	24547.98
485.965	24581.36
486.18	24621.4
486.395	24667.49
486.609	24697.09
486.824	24739.85
487.039	24775.25
487.254	24823.76
487.469	24864.58
487.683	24901.45
487.898	24940.31
488.113	24986.83
488.327	25028.52
488.542	25070.27
488.757	25112.82
488.972	25154.42
489.186	25193.63
489.401	25234.05
489.615	25265.67
489.83	25299.09
490.045	25335.62
490.259	25365.42
490.474	25391.87
490.688	25428.4
490.903	25456.63
491.117	25479.36
491.332	25502.65
491.546	25523.87
491.761	25555.91
491.975	25590.25
492.19	25622.36
492.404	25652.09
492.618	25690.62
492.833	25722.51
493.047	25749.51
493.262	25784.71
493.476	25817.69
493.69	25852.91
493.905	25890.31
494.119	25917.03
494.333	25946.91
494.547	25974.82
494.762	26001.74
494.976	26026.72
495.19	26054.16
495.404	26086.72
495.619	26113.05
495.833	26139.32
496.047	26166.09
496.261	26182.6
496.475	26197.62
496.689	26197.58
496.903	26208.72
497.117	26213.96
497.332	26216.32
497.546	26202.6
497.76	26193.82
497.974	26174.36
498.188	26167.2
498.402	26152.6
498.616	26138.87
498.83	26131.78
499.044	26127.71
499.258	26127.76
499.472	26121.42
499.685	26122.4
499.899	26138.71
500.113	26143.14
500.327	26154
500.541	26156.49
500.755	26171.36
500.969	26195.76
501.183	26219.49
501.396	26237.83
501.61	26243.36
501.824	26271.31
502.038	26298.62
502.251	26318.94
502.465	26341.49
502.679	26370.49
502.892	26398.47
503.106	26425
503.32	26446.96
503.533	26459.07
503.747	26485.18
503.961	26513.49
504.174	26536.49
504.388	26559.25
504.602	26590.27
504.815	26622.22
505.029	26652.82
505.242	26687.47
505.456	26729.29
505.669	26773.05
505.883	26817.38
506.096	26869.09
506.31	26924.16
506.523	26972.89
506.736	27027.83
506.95	27083.67
507.163	27129.63
507.377	27183.98
507.59	27247.07
507.803	27304.76
508.017	27371.05
508.23	27434.38
508.443	27501.72
508.657	27567.11
508.87	27625.76
509.083	27692.43
509.296	27763.25
509.51	27846.25
509.723	27930.52
509.936	28005.38
510.149	28079.18
510.363	28159.89
510.576	28247.12
510.789	28336.18
511.002	28432.03
511.215	28535.31
511.428	28635.07
511.641	28732.05
511.854	28831.69
512.067	28935.03
512.28	29039.27
512.493	29143.2
512.707	29245.43
512.92	29358.67
513.132	29452.31
513.345	29548.07
513.558	29651.22
513.771	29746.83
513.984	29845.74
514.197	29950
514.41	30044.47
514.623	30139.34
514.836	30251.56
515.049	30355.32
515.262	30453.62
515.474	30560.65
515.687	30667.31
515.9	30772.09
516.113	30878.85
516.325	30979.6
516.538	31070.54
516.751	31169
516.964	31260.82
517.176	31345.67
517.389	31430
517.602	31513.72
517.814	31591.05
518.027	31662.58
518.24	31735.12
518.452	31806.71
518.665	31885.45
518.877	31965.47
519.09	32049.31
519.303	32128.62
519.515	32192.03
519.728	32256.32
519.94	32319.07
520.153	32396.52
520.365	32473.89
520.578	32544.07
520.79	32609.29
521.002	32669.03
521.215	32737.05
521.427	32781.78
521.64	32832.32
521.852	32888.76
522.064	32948.56
522.277	33008.98
522.489	33056.96
522.701	33098.12
522.914	33146.36
523.126	33197.11
523.338	33245.89
523.551	33283.8
523.763	33327.92
523.975	33382.36
524.187	33426.38
524.399	33468.69
524.612	33513.83
524.824	33549.54
525.036	33599.14
525.248	33645.29
525.46	33679.98
525.672	33728.11
525.884	33763.69
526.096	33803.03
526.308	33832.69
526.521	33868.85
526.733	33899.98
526.945	33931.83
527.157	33969.69
527.369	33993.43
527.581	34023.34
527.793	34054.51
528.004	34076.12
528.216	34110.72
528.428	34136.92
528.64	34175.07
528.852	34212.49
529.064	34243.29
529.276	34278.2
529.488	34300.49
529.699	34328.87
529.911	34347.42
530.123	34378.32
530.335	34398.82
530.547	34427.83
530.758	34460.09
530.97	34475.52
531.182	34497.32
531.393	34527.36
531.605	34552.51
531.817	34593.58
532.029	34622.11
532.24	34651.34
532.452	34678.38
532.663	34710.29
532.875	34740.58
533.087	34765.05
533.298	34794.89
533.51	34818.72
533.721	34840.87
533.933	34870.36
534.144	34882.03
534.356	34908.47
534.567	34925.92
534.779	34936.58
534.99	34953.2
535.202	34962.56
535.413	34973.72
535.624	34993.38
535.836	35006.85
536.047	35020.56
536.259	35017.32
536.47	35036.27
536.681	35047.34
536.893	35064.25
537.104	35082.03
537.315	35093.22
537.526	35099.92
537.738	35125.47
537.949	35145.67
538.16	35165.67
538.371	35175.16
538.582	35204.72
538.794	35223.16
539.005	35237.69
539.216	35258.69
539.427	35281.76
539.638	35301.76
539.849	35315.85
540.06	35321.34
540.272	35332.32
540.483	35337.11
540.694	35356.89
540.905	35351.03
541.116	35354.31
541.327	35362.38
541.538	35367.92
541.749	35367.87
541.96	35378.56
542.17	35388.98
542.381	35399.56
542.592	35400.2
542.803	35412.38
543.014	35420.18
543.225	35431.27
543.436	35441.91
543.647	35462.45
543.857	35476.94
544.068	35492.82
544.279	35495.67
544.49	35513.31
544.701	35526.91
544.911	35536.31
545.122	35553.03
545.333	35558.6
545.543	35581.82
545.754	35593.83
545.965	35597.96
546.175	35602.18
546.386	35617.42
546.597	35632
546.807	35643.43
547.018	35649.43
547.229	35650.03
547.439	35647.02
547.65	35648.25
547.86	35640.07
548.071	35642
548.281	35640.58
548.492	35646.6
548.702	35637.51
548.913	35640.32
549.123	35648.05
549.333	35653.58
549.544	35669.09
549.754	35678.34
549.965	35685.6
550.175	35692.96
550.385	35702.02
550.596	35719
550.806	35726.89
551.016	35733.62
551.227	35736.67
551.437	35734.29
551.647	35737.74
551.857	35738.07
552.068	35754.94
552.278	35768.74
552.488	35774.49
552.698	35781.38
552.908	35776.72
553.119	35776.49
553.329	35782.47
553.539	35792.38
553.749	35786.25
553.959	35787.51
554.169	35790.92
554.379	35774.23
554.589	35766.85
554.799	35765.36
555.009	35755.67
555.219	35755.36
555.429	35751.34
555.639	35746.87
555.849	35732.25
556.059	35737.74
556.269	35730.76
556.479	35718.09
556.689	35712.58
556.899	35725.8
557.109	35728.38
557.319	35735.22
557.528	35734.36
557.738	35734.34
557.948	35732.49
558.158	35724.92
558.368	35720.42
558.577	35718.89
558.787	35716.49
558.997	35725.92
559.207	35702.94
559.416	35691.67
559.626	35677.52
559.836	35667.25
560.045	35663.43
560.255	35660.74
560.465	35660.74
560.674	35658.14
560.884	35647.12
561.093	35646.74
561.303	35633.02
561.512	35626.78
561.722	35619.58
561.932	35612.38
562.141	35615.34
562.351	35604.32
562.56	35598.49
562.769	35595.52
562.979	35583.91
563.188	35582.11
563.398	35577.56
563.607	35580.83
563.817	35573.42
564.026	35561.69
564.235	35556.02
564.445	35537.74
564.654	35529.54
564.863	35510.74
565.073	35494.38
565.282	35485.98
565.491	35467.31
565.7	35446.94
565.91	35415.47
566.119	35399.38
566.328	35391.62
566.537	35378.6
566.746	35365.58
566.956	35352.36
567.165	35342.78
567.374	35345.89
567.583	35332.56
567.792	35321.11
568.001	35302.74
568.21	35287.92
568.419	35277.56
568.628	35246.65
568.837	35216.11
569.046	35192.31
569.255	35163.29
569.464	35133.78
569.673	35105.36
569.882	35073.85
570.091	35046.91
570.3	35024.58
570.509	35009.96
570.718	34989.78
570.927	34973.58
571.135	34959.43
571.344	34930.94
571.553	34916.63
571.762	34908.16
571.971	34890.09
572.18	34874.38
572.388	34862.22
572.597	34851.07
572.806	34823.34
573.014	34785.82
573.223	34773.71
573.432	34746.69
573.641	34734.2
573.849	34710.87
574.058	34690.47
574.266	34661
574.475	34639.2
574.684	34625.32
574.892	34600.2
575.101	34589.69
575.309	34583.63
575.518	34559.92
575.726	34544.22
575.935	34526.2
576.143	34512.65
576.352	34487.67
576.56	34470.89
576.769	34449.6
576.977	34417.14
577.186	34408.18
577.394	34386.32
577.602	34362.89
577.811	34344.05
578.019	34325.85
578.228	34296.23
578.436	34272.67
578.644	34247.47
578.852	34220.45
579.061	34191.14
579.269	34166.23
579.477	34136.16
579.685	34106.58
579.894	34084.09
580.102	34060.05
580.31	34041.76
580.518	34031.07
580.726	34006
580.935	33986.56
581.143	33974.69
581.351	33958.62
581.559	33941.92
581.767	33916.56
581.975	33898.42
582.183	33877.67
582.391	33846.45
582.599	33815.71
582.807	33781.38
583.015	33756.96
583.223	33729.78
583.431	33694.42
583.639	33668.22
583.847	33657
584.055	33627.05
584.263	33602.52
584.471	33572.18
584.678	33555.6
584.886	33531.83
585.094	33521
585.302	33493.16
585.51	33466.34
585.718	33444.89
585.925	33423.25
586.133	33380.02
586.341	33364.65
586.549	33339.47
586.756	33314.94
586.964	33291.56
587.172	33261.98
587.379	33223.71
587.587	33203.49
587.795	33188.82
588.002	33161.62
588.21	33132.54
588.417	33105.45
588.625	33075.52
588.833	33047.52
589.04	33017.94
589.248	32986.85
589.455	32969.23
589.663	32940.05
589.87	32916.4
590.078	32882.98
590.285	32858.16
590.492	32828.91
590.7	32815.05
590.907	32784.56
591.115	32758.09
591.322	32733.91
591.529	32705.18
591.737	32678.58
591.944	32662.89
592.151	32630.25
592.359	32592.98
592.566	32561.03
592.773	32527.56
592.981	32490.22
593.188	32459.07
593.395	32424.43
593.602	32394.87
593.809	32369.31
594.017	32337.83
594.224	32304.38
594.431	32272.98
594.638	32245.67
594.845	32215.78
595.052	32195.38
595.259	32169.07
595.466	32139.76
595.673	32110.36
595.88	32092.11
596.088	32066.27
596.295	32040
596.502	32011.23
596.709	31987.22
596.915	31964.38
597.122	31936.02
597.329	31907.85
597.536	31883.78
597.743	31860.27
597.95	31827.25
598.157	31784.62
598.364	31733.96
598.571	31691.45
598.777	31637.05
598.984	31581.38
599.191	31525.89
599.398	31475.18
599.605	31425.96
599.811	31361.29
600.018	31303.18
600.225	31250.54
600.431	31198.71
600.638	31162.87
600.845	31120.83
601.052	31088.23
601.258	31049.91
601.465	31005.91
601.671	30951.11
601.878	30876.43
602.085	30788.25
602.291	30679.76
602.498	30565.87
602.704	30431.76
602.911	30269.89
603.117	30084.38
603.324	29876.22
603.53	29662.02
603.737	29431.18
603.943	29190.94
604.15	28947.52
604.356	28706.92
604.562	28464.51
604.769	28206.72
604.975	27941.25
605.181	27684.54
605.388	27422.52
605.594	27172.12
605.8	26909.16
606.007	26649.23
606.213	26386.32
606.419	26126.02
606.625	25862.91
606.832	25593.14
607.038	25322.31
607.244	25054.56
607.45	24786.38
607.656	24518.49
607.863	24245.51
608.069	23974.71
608.275	23712.98
608.481	23445.42
608.687	23176.78
608.893	22895.62
609.099	22617.6
609.305	22349.31
609.511	22085.2
609.717	21813.12
609.923	21540.47
610.129	21257.27
610.335	20977.89
610.541	20679.51
610.747	20386.18
610.953	20091.36
611.159	19798.82
611.365	19502.36
611.571	19204.58
611.776	18900.23
611.982	18591.34
612.188	18277.8
612.394	17966.45
612.6	17652.74
612.806	17345.45
613.011	17028.36
613.217	16716.45
613.423	16412.03
613.628	16114.2
613.834	15810.18
614.04	15513.16
614.246	15220.42
614.451	14931.56
614.657	14659.43
614.862	14389.8
615.068	14126.07
615.274	13876.02
615.479	13615.27
615.685	13368.32
615.89	13121.42
616.096	12876.63
616.301	12628.94
616.507	12383.94
616.712	12140.71
616.918	11890.74
617.123	11632.6
617.329	11374.52
617.534	11110.49
617.74	10848
617.945	10578.11
618.15	10298.09
618.356	9863.94
618.561	9072.38
618.766	8111.87
618.972	7124.32
619.177	6159.87
619.382	5223.09
619.588	4310.74
619.793	3766.65
619.998	3134.23
620.203	2371.98
620.408	1447.63
620.614	540.5
