Data from test1_MAYP1115451__98__10-17-43-660.txt Node

Date: Wed Jun 12 10:17:43 MDT 2024
User: Modes Lab
Spectrometer: MAYP111545
Trigger mode: 0
Integration Time (sec): 8.000000E-3
Scans to average: 5
Electric dark correction enabled: true
Nonlinearity correction enabled: false
Boxcar width: 5
XAxis mode: Wavelengths
Number of Pixels in Spectrum: 2068
>>>>>Begin Spectral Data<<<<<
165.214	163.1
165.449	163.17
165.683	171.45
165.918	179.98
166.152	186.64
166.387	192.89
166.621	124.02
166.856	162.75
167.09	182.15
167.325	205.47
167.559	221.49
167.794	236.24
168.028	243.4
168.263	244.84
168.497	245.33
168.732	246.45
168.966	246.47
169.2	248.38
169.435	249.65
169.669	250.73
169.903	252.33
170.138	254.02
170.372	254.98
170.606	255.64
170.841	257.29
171.075	258.04
171.309	258.67
171.544	259.73
171.778	260.64
172.012	261.91
172.246	263.89
172.48	265.55
172.715	267.58
172.949	269.47
173.183	272.36
173.417	274.2
173.651	276.69
173.885	278.02
174.119	278.62
174.354	280.09
174.588	281.13
174.822	281.09
175.056	280.73
175.29	281.18
175.524	280.56
175.758	281.29
175.992	281.58
176.226	280.78
176.46	281.38
176.694	282.93
176.928	284.24
177.162	284.11
177.396	285.18
177.63	286.49
177.864	286.15
178.097	287.8
178.331	288.6
178.565	289.64
178.799	292.09
179.033	292.45
179.267	292.16
179.5	292.16
179.734	294.11
179.968	295.15
180.202	295.65
180.436	296.82
180.669	296.95
180.903	296.95
181.137	297.82
181.371	297.6
181.604	298.95
181.838	300.84
182.072	302.2
182.305	303.35
182.539	304.33
182.772	306.09
183.006	307.47
183.24	309.24
183.473	312.95
183.707	314.05
183.94	315.47
184.174	316.55
184.408	317.73
184.641	318.47
184.875	319.13
185.108	319.75
185.342	320.96
185.575	322.22
185.808	323.76
186.042	322.29
186.275	323.33
186.509	324
186.742	326.22
186.976	327.78
187.209	329.91
187.442	331.05
187.676	332.56
187.909	332.87
188.142	334.25
188.376	335.04
188.609	337.82
188.842	339.22
189.076	340.53
189.309	341.36
189.542	342.44
189.775	343.91
190.009	345.98
190.242	347.11
190.475	350.04
190.708	351.75
190.941	354.51
191.174	355.89
191.408	357.98
191.641	359.24
191.874	360.56
192.107	362.73
192.34	364.38
192.573	366.42
192.806	369.11
193.039	370.53
193.272	372.35
193.505	372.89
193.738	374.44
193.971	375.84
194.204	379.31
194.437	380.58
194.67	381.95
194.903	384.13
195.136	385.04
195.369	386.98
195.602	387.75
195.835	389.75
196.068	392.11
196.301	394.11
196.533	395.65
196.766	396.73
196.999	399.47
197.232	401.91
197.465	403.16
197.698	404.58
197.93	406.93
198.163	409.55
198.396	411.82
198.629	414.24
198.861	416.27
199.094	418.89
199.327	420.4
199.559	422.42
199.792	423.89
200.025	427.44
200.257	430.73
200.49	432.4
200.723	434.58
200.955	436.22
201.188	438.73
201.42	440.78
201.653	443.4
201.886	445.93
202.118	448.05
202.351	450.47
202.583	452.24
202.816	454.27
203.048	457.02
203.281	459.42
203.513	461.4
203.745	463.85
203.978	466.09
204.21	468.87
204.443	471.6
204.675	473.84
204.907	476.93
205.14	478.2
205.372	480.13
205.605	482.58
205.837	484.8
206.069	487.31
206.302	488.76
206.534	491.44
206.766	492.36
206.998	494.27
207.231	496.02
207.463	496.91
207.695	499.85
207.927	502.05
208.159	503.51
208.392	504.64
208.624	507.67
208.856	508.82
209.088	509.98
209.32	512.8
209.552	515.49
209.784	517.78
210.017	520.82
210.249	522.25
210.481	525.65
210.713	527.71
210.945	530.87
211.177	531.53
211.409	533.67
211.641	535.58
211.873	536.35
212.105	537.67
212.337	539.55
212.569	540.84
212.801	543.38
213.033	544.2
213.264	545.16
213.496	546.73
213.728	548.98
213.96	552.6
214.192	554.51
214.424	556.93
214.656	559.16
214.887	562.6
215.119	565.04
215.351	566.07
215.583	567.93
215.815	570.49
216.046	571.64
216.278	573.24
216.51	573.96
216.741	575.87
216.973	577.96
217.205	579.13
217.436	577.91
217.668	578.84
217.9	580.71
218.131	581.82
218.363	583.58
218.595	586.76
218.826	588.2
219.058	589.05
219.289	590.36
219.521	591.31
219.752	593.44
219.984	596.25
220.215	596.35
220.447	597.04
220.678	598.13
220.91	598.71
221.141	598.25
221.373	599.29
221.604	600.18
221.836	601.35
222.067	602.76
222.298	603.09
222.53	603.8
222.761	606.33
222.993	606.51
223.224	608.04
223.455	607.8
223.686	608.73
223.918	609.44
224.149	611.05
224.38	610.8
224.612	609.89
224.843	610.76
225.074	611.51
225.305	610.71
225.536	613.24
225.768	612.98
225.999	614.73
226.23	616.11
226.461	616.56
226.692	617.05
226.923	618.11
227.155	621.96
227.386	621.64
227.617	622.07
227.848	622.87
228.079	622.31
228.31	623.35
228.541	622.76
228.772	622.51
229.003	621.95
229.234	620.62
229.465	620.29
229.696	617.13
229.927	617.64
230.158	616.87
230.389	616.76
230.62	616.76
230.85	616.67
231.081	617.85
231.312	618.05
231.543	617.96
231.774	619.16
232.005	620.6
232.236	621.8
232.466	622.67
232.697	623.49
232.928	624.04
233.159	624.51
233.389	624.11
233.62	623.55
233.851	623.42
234.082	624.33
234.312	623.36
234.543	622.4
234.774	621.76
235.004	621.18
235.235	621.55
235.466	620.42
235.696	619.65
235.927	619.95
236.157	620.69
236.388	620.42
236.618	620.47
236.849	621.25
237.08	622
237.31	622.45
237.541	621.89
237.771	620.73
238.002	622.16
238.232	622.36
238.463	622.62
238.693	622.05
238.923	621.25
239.154	621.47
239.384	621.55
239.615	621.16
239.845	620.6
240.075	620.15
240.306	620.47
240.536	619.71
240.766	618.47
240.997	617.78
241.227	617.38
241.457	617.29
241.687	616.15
241.918	615.89
242.148	614.64
242.378	614.13
242.608	612.36
242.839	613
243.069	612.64
243.299	612.55
243.529	612.47
243.759	611.35
243.989	610.35
244.22	609.11
244.45	607.4
244.68	607.53
244.91	607.65
245.14	607.65
245.37	605.16
245.6	604.27
245.83	604.27
246.06	603.33
246.29	603.42
246.52	604.29
246.75	603.84
246.98	604.29
247.21	604.95
247.44	603.09
247.67	603.55
247.9	602.98
248.13	602.58
248.359	601.89
248.589	601.75
248.819	600.76
249.049	598.64
249.279	599.95
249.509	598.65
249.738	595.98
249.968	595.62
250.198	594.56
250.428	594.64
250.657	593.89
250.887	593.73
251.117	593
251.347	591.93
251.576	592.85
251.806	591.33
252.036	591.13
252.265	591.42
252.495	591.04
252.725	590.89
252.954	591.27
253.184	591.07
253.413	589.82
253.643	589.31
253.873	590
254.102	589.16
254.332	588.75
254.561	588.75
254.791	587.76
255.02	587.31
255.25	586.73
255.479	585.47
255.708	584.95
255.938	585.02
256.167	583.71
256.397	581.65
256.626	581.85
256.856	580.51
257.085	579.49
257.314	578.89
257.544	578.35
257.773	578.36
258.002	578.09
258.232	577.64
258.461	576.29
258.69	575.25
258.919	573.87
259.149	571.91
259.378	571.62
259.607	571.11
259.836	570.16
260.065	569.33
260.295	568.09
260.524	566.8
260.753	565.16
260.982	564.13
261.211	564.04
261.44	564.82
261.669	564.18
261.899	562.58
262.128	560.84
262.357	560.44
262.586	560.27
262.815	558.67
263.044	557.75
263.273	560.95
263.502	559.75
263.731	558.84
263.96	557.73
264.189	557.09
264.418	557.76
264.646	558.22
264.875	558.09
265.104	556.15
265.333	555.29
265.562	554.69
265.791	549.8
266.02	549.02
266.249	547.67
266.477	547.47
266.706	545.13
266.935	543.76
267.164	542.04
267.393	540.62
267.621	540.62
267.85	539.76
268.079	538.42
268.307	538.87
268.536	537.8
268.765	538.4
268.993	538.07
269.222	538.78
269.451	539.02
269.679	538.78
269.908	537.82
270.137	537.35
270.365	538.35
270.594	539.02
270.822	539.56
271.051	541.04
271.279	541.51
271.508	540.53
271.736	540.89
271.965	540.98
272.193	540.69
272.422	542.44
272.65	543.82
272.879	543.33
273.107	542.91
273.336	542.84
273.564	542.62
273.792	540.75
274.021	540.18
274.249	538.91
274.477	537.13
274.706	535.96
274.934	532.98
275.162	530.51
275.391	528.82
275.619	526.64
275.847	524.67
276.075	523.38
276.304	522.58
276.532	520.91
276.76	520
276.988	519.51
277.216	519.33
277.445	518.29
277.673	517.91
277.901	519.09
278.129	521.07
278.357	520.07
278.585	520.4
278.813	519.31
279.041	519.36
279.269	519.51
279.497	518.51
279.725	517.87
279.954	517.33
280.182	515.47
280.41	513.58
280.637	512.04
280.865	512.05
281.093	511.05
281.321	510.65
281.549	510.6
281.777	510.11
282.005	510.45
282.233	510.02
282.461	510.76
282.689	510.6
282.916	509.95
283.144	508.49
283.372	507.75
283.6	505.95
283.828	505.38
284.055	503.45
284.283	503.29
284.511	502.6
284.739	501.29
284.966	500.56
285.194	500.69
285.422	499.82
285.649	499.62
285.877	498.65
286.105	499.36
286.332	499.93
286.56	501.16
286.788	499.6
287.015	497.95
287.243	497.6
287.47	497.4
287.698	496.07
287.925	496.25
288.153	496.33
288.381	495.51
288.608	494.38
288.836	494.11
289.063	493.64
289.29	493.44
289.518	493.42
289.745	493.07
289.973	491.91
290.2	492.45
290.428	491.2
290.655	490.85
290.882	490.15
291.11	489.71
291.337	487.69
291.564	485.91
291.792	485.47
292.019	485.75
292.246	485.44
292.473	484.85
292.701	485.25
292.928	485.29
293.155	484.69
293.382	484.89
293.61	483.98
293.837	483.6
294.064	484.25
294.291	483.09
294.518	481.38
294.745	481.56
294.972	481.95
295.2	480.25
295.427	480
295.654	479.78
295.881	477.71
296.108	477.42
296.335	476.91
296.562	476.02
296.789	476.51
297.016	477.31
297.243	475.4
297.47	473.76
297.697	473.24
297.924	471.96
298.151	470.35
298.378	470.91
298.604	470.36
298.831	470.45
299.058	469.65
299.285	468.4
299.512	468.16
299.739	469.44
299.966	469.56
300.192	469.91
300.419	469.85
300.646	468.78
300.873	468.69
301.099	468.8
301.326	468.13
301.553	468.82
301.78	469.33
302.006	468.11
302.233	466.73
302.46	465.98
302.686	464.65
302.913	464.62
303.14	465.09
303.366	464.07
303.593	462.75
303.819	461.89
304.046	460.6
304.272	459.45
304.499	458.38
304.725	459
304.952	458.04
305.179	456.2
305.405	456.58
305.631	457.2
305.858	458.24
306.084	457.16
306.311	458.07
306.537	457.89
306.764	457.95
306.99	458.25
307.216	457.96
307.443	459.33
307.669	461.02
307.895	459.49
308.122	458.38
308.348	456.82
308.574	458.49
308.801	456.09
309.027	455.89
309.253	455.6
309.479	455.25
309.706	455.31
309.932	453.33
310.158	453.07
310.384	453.82
310.61	453.4
310.837	453.56
311.063	451.53
311.289	451.64
311.515	451.07
311.741	450.67
311.967	451.36
312.193	449.93
312.419	450.96
312.645	450.85
312.871	449.84
313.097	449.65
313.323	449.98
313.549	451.93
313.775	453.18
314.001	453.76
314.227	453.47
314.453	454.27
314.679	455.27
314.905	455.22
315.131	455.95
315.357	456.71
315.583	457.69
315.809	457.11
316.034	456.84
316.26	457.69
316.486	457.98
316.712	458.91
316.938	458.04
317.163	458.22
317.389	458.55
317.615	458.4
317.841	458.36
318.066	458.45
318.292	459.75
318.518	459.58
318.743	459.15
318.969	459.82
319.195	460.91
319.42	461.6
319.646	461.58
319.872	461.13
320.097	461.6
320.323	462.4
320.548	463.47
320.774	464.07
320.999	465.25
321.225	466.13
321.45	466.42
321.676	466.85
321.901	468.67
322.127	469.98
322.352	473.47
322.578	475.69
322.803	477.78
323.029	478.75
323.254	480.49
323.479	482.16
323.705	484.51
323.93	486.47
324.155	487.87
324.381	489.55
324.606	492.73
324.831	493.6
325.057	495.02
325.282	498.05
325.507	500.07
325.732	502.84
325.958	505.42
326.183	507.25
326.408	510.07
326.633	513.13
326.858	514.64
327.084	516.8
327.309	519.64
327.534	523.33
327.759	525.29
327.984	528.45
328.209	531.38
328.434	534.4
328.659	536.53
328.884	539.38
329.109	542.31
329.334	544.96
329.559	548.02
329.784	551.36
330.009	553.75
330.234	556
330.459	559.29
330.684	562.45
330.909	566.38
331.134	571.2
331.359	574.8
331.584	578.25
331.809	584.29
332.034	587.71
332.259	591.78
332.483	597.04
332.708	601.44
332.933	606.35
333.158	611.18
333.383	615.71
333.607	621.93
333.832	626.96
334.057	633.47
334.282	637.8
334.506	643.4
334.731	650.13
334.956	654.98
335.18	660.76
335.405	666.36
335.63	671.29
335.854	676.62
336.079	681.2
336.303	686.87
336.528	692.24
336.753	696.87
336.977	702.91
337.202	706.76
337.426	713.05
337.651	720.36
337.875	725.96
338.1	733.78
338.324	740.95
338.549	747.62
338.773	756.8
338.997	762.85
339.222	770.29
339.446	776.29
339.671	784.53
339.895	791.02
340.119	797.29
340.344	804.65
340.568	810.44
340.792	816.93
341.017	824.69
341.241	830.91
341.465	838.8
341.689	845.93
341.914	854.91
342.138	863.36
342.362	871.04
342.586	880.91
342.811	888.84
343.035	898.95
343.259	907.51
343.483	916.47
343.707	924.51
343.931	934.24
344.155	942.95
344.38	952.71
344.604	961.44
344.828	972.29
345.052	979.65
345.276	990.24
345.5	998.15
345.724	1009.2
345.948	1017.38
346.172	1027.87
346.396	1037.07
346.62	1049.27
346.844	1057.82
347.068	1067.85
347.292	1077.2
347.515	1087.11
347.739	1099.4
347.963	1109.75
348.187	1119.18
348.411	1129.31
348.635	1139.53
348.859	1149.58
349.082	1158.91
349.306	1170.31
349.53	1182.24
349.754	1193.47
349.977	1204.47
350.201	1214.13
350.425	1225.98
350.649	1235.53
350.872	1246.73
351.096	1257.31
351.32	1269.71
351.543	1282.07
351.767	1292.96
351.99	1302.85
352.214	1314.4
352.438	1326.27
352.661	1336.56
352.885	1347.09
353.108	1359.65
353.332	1373.31
353.555	1385.62
353.779	1396
354.002	1407.78
354.226	1418.75
354.449	1431.04
354.673	1441.04
354.896	1452.05
355.12	1465.71
355.343	1478.42
355.566	1491.69
355.79	1503.07
356.013	1514.36
356.237	1526.56
356.46	1537.07
356.683	1548.78
356.907	1561.47
357.13	1573.27
357.353	1587.29
357.576	1597.29
357.8	1610.29
358.023	1622.05
358.246	1634.33
358.469	1647.13
358.693	1660.45
358.916	1673.13
359.139	1687.35
359.362	1699.78
359.585	1715.2
359.808	1729.13
360.031	1744.6
360.255	1758.71
360.478	1771.62
360.701	1784.38
360.924	1799.33
361.147	1813.13
361.37	1828.24
361.593	1842.91
361.816	1857.11
362.039	1869.95
362.262	1880.02
362.485	1891.2
362.708	1902.76
362.931	1915.24
363.154	1929.67
363.377	1941.31
363.599	1954.71
363.822	1968.45
364.045	1980.13
364.268	1993.4
364.491	2008.05
364.714	2025.31
364.936	2041.04
365.159	2053.93
365.382	2070.36
365.605	2082.91
365.828	2099.71
366.05	2116.29
366.273	2130.42
366.496	2147.47
366.718	2163.85
366.941	2177.13
367.164	2190.76
367.386	2205.24
367.609	2221.96
367.832	2237.75
368.054	2254.42
368.277	2269.49
368.5	2281.76
368.722	2298.76
368.945	2314.6
369.167	2329.33
369.39	2345.25
369.612	2361.27
369.835	2377.18
370.057	2393.65
370.28	2408.85
370.502	2426.93
370.725	2442.84
370.947	2462.73
371.169	2479.11
371.392	2496.93
371.614	2511.15
371.837	2529.58
372.059	2547.09
372.281	2565.53
372.504	2584.98
372.726	2602.36
372.948	2619.53
373.171	2636.71
373.393	2653.6
373.615	2668.27
373.837	2684.8
374.06	2705.07
374.282	2723.89
374.504	2743.15
374.726	2759.98
374.948	2774.51
375.17	2790.71
375.393	2809.75
375.615	2829.18
375.837	2848.58
376.059	2871.82
376.281	2890.76
376.503	2909.35
376.725	2929.05
376.947	2948.76
377.169	2970.09
377.391	2992.64
377.613	3017.27
377.835	3037.6
378.057	3054.31
378.279	3073.13
378.501	3093.71
378.723	3112.75
378.945	3134.4
379.167	3155.64
379.389	3177.42
379.611	3197.49
379.833	3220.31
380.054	3242.35
380.276	3263.29
380.498	3290.73
380.72	3315.33
380.942	3336.11
381.163	3363.45
381.385	3390.93
381.607	3415.02
381.829	3436.95
382.05	3462.84
382.272	3487.71
382.494	3510.67
382.716	3538.98
382.937	3562.73
383.159	3586.27
383.381	3616.64
383.602	3640.13
383.824	3662.93
384.045	3688.75
384.267	3715.84
384.488	3742.42
384.71	3768.13
384.932	3793.13
385.153	3819.78
385.375	3846.65
385.596	3871.36
385.818	3893.89
386.039	3921.56
386.261	3948.02
386.482	3974.42
386.703	4002.15
386.925	4028.09
387.146	4054.44
387.368	4083.75
387.589	4109.36
387.81	4138.2
388.032	4170.44
388.253	4201.16
388.474	4229.65
388.696	4255.58
388.917	4285.24
389.138	4315.64
389.359	4344.09
389.581	4374.33
389.802	4404.58
390.023	4438.65
390.244	4465.24
390.465	4495.33
390.687	4524.42
390.908	4553.95
391.129	4585.29
391.35	4615.67
391.571	4644.05
391.792	4677.55
392.013	4708.2
392.234	4740.44
392.455	4769.15
392.677	4801.84
392.898	4832.76
393.119	4865.16
393.34	4895.22
393.561	4931.38
393.782	4964.47
394.003	4997.55
394.223	5028.35
394.444	5061.36
394.665	5091.25
394.886	5125.47
395.107	5156.93
395.328	5190.04
395.549	5220.36
395.77	5258.04
395.99	5290.75
396.211	5323.35
396.432	5360.24
396.653	5393.42
396.874	5428.05
397.094	5460.69
397.315	5491.73
397.536	5528.16
397.757	5560.51
397.977	5594.73
398.198	5623.73
398.419	5657.44
398.639	5691.49
398.86	5723.78
399.081	5755.8
399.301	5787.22
399.522	5820.35
399.742	5856.22
399.963	5887.11
400.184	5917.15
400.404	5950.91
400.625	5987.62
400.845	6021.65
401.066	6055.65
401.286	6087.55
401.507	6123.05
401.727	6156.24
401.948	6191.69
402.168	6220.31
402.388	6257.84
402.609	6293.49
402.829	6328.02
403.05	6359.84
403.27	6393.71
403.49	6428.58
403.711	6464.55
403.931	6499.35
404.151	6535.29
404.372	6568.87
404.592	6605.51
404.812	6642.04
405.032	6676.45
405.253	6712.64
405.473	6746.78
405.693	6779.27
405.913	6815.13
406.133	6852.89
406.353	6889.53
406.574	6924.73
406.794	6959.65
407.014	6996.36
407.234	7031.38
407.454	7068.45
407.674	7103.45
407.894	7141.89
408.114	7176.71
408.334	7210.91
408.554	7241.91
408.774	7277.91
408.994	7316.18
409.214	7352.98
409.434	7386.93
409.654	7423.29
409.874	7461.22
410.094	7496.85
410.314	7533.62
410.534	7572.89
410.754	7607.47
410.974	7642.89
411.193	7679.95
411.413	7716.38
411.633	7757.45
411.853	7800.49
412.073	7834.76
412.292	7874.55
412.512	7912.55
412.732	7950.6
412.952	7989.87
413.171	8030.13
413.391	8073.33
413.611	8114.75
413.831	8158.95
414.05	8200.82
414.27	8240
414.489	8284.64
414.709	8330.13
414.929	8374.31
415.148	8422.18
415.368	8466.75
415.587	8512.29
415.807	8555.33
416.026	8599.33
416.246	8638.69
416.465	8679.51
416.685	8720.02
416.904	8765.04
417.124	8802.13
417.343	8844.27
417.563	8884.85
417.782	8933.96
418.002	8977.04
418.221	9022.18
418.44	9068.25
418.66	9108.33
418.879	9153.64
419.098	9198.89
419.318	9243.85
419.537	9289.22
419.756	9332.22
419.976	9372.27
420.195	9408.4
420.414	9447.29
420.633	9484.78
420.853	9527.71
421.072	9581.36
421.291	9629.04
421.51	9675.49
421.729	9717.33
421.948	9762.64
422.168	9806.02
422.387	9852.05
422.606	9897.11
422.825	9944.78
423.044	9994.67
423.263	10035.95
423.482	10072.98
423.701	10113.6
423.92	10161.33
424.139	10204.69
424.358	10251.38
424.577	10302.42
424.796	10351.64
425.015	10394.89
425.234	10439.71
425.453	10486.47
425.672	10536.27
425.891	10582.55
426.11	10629.8
426.328	10669.22
426.547	10714.36
426.766	10756.07
426.985	10803.58
427.204	10847.18
427.422	10899.65
427.641	10945.56
427.86	10991.87
428.079	11037.56
428.297	11086.56
428.516	11131.36
428.735	11182.56
428.954	11232.65
429.172	11288.11
429.391	11332.73
429.61	11384.56
429.828	11430.47
430.047	11482.07
430.265	11529.33
430.484	11574.36
430.703	11620.73
430.921	11668.53
431.14	11714.27
431.358	11759.58
431.577	11800.91
431.795	11849.45
432.014	11893.07
432.232	11944.75
432.451	11995.38
432.669	12044.11
432.887	12093.07
433.106	12142.75
433.324	12191.51
433.543	12243.45
433.761	12292.35
433.979	12341.56
434.198	12390.45
434.416	12443.78
434.634	12481.36
434.853	12532.47
435.071	12577.27
435.289	12622.47
435.507	12667.56
435.726	12713.95
435.944	12755.4
436.162	12800.51
436.38	12846.42
436.598	12893.96
436.817	12929.71
437.035	12986.27
437.253	13023
437.471	13074.13
437.689	13127.89
437.907	13182.24
438.125	13227.18
438.343	13270.45
438.561	13319.67
438.78	13367.22
438.998	13411.62
439.216	13467.04
439.434	13509.4
439.652	13561.38
439.869	13608.76
440.087	13650.27
440.305	13690.45
440.523	13743.64
440.741	13797.04
440.959	13850.69
441.177	13902.16
441.395	13949.15
441.613	13991.64
441.831	14038.55
442.048	14080.02
442.266	14126.65
442.484	14173.76
442.702	14228.91
442.919	14276.84
443.137	14328.56
443.355	14368.05
443.573	14412.96
443.79	14459.73
444.008	14510.58
444.226	14563.4
444.443	14615.69
444.661	14660.04
444.879	14708.69
445.096	14749.44
445.314	14795.2
445.532	14838.89
445.749	14893.67
445.967	14935.78
446.184	14983.98
446.402	15031.58
446.619	15079.16
446.837	15126.13
447.054	15176.4
447.272	15226.11
447.489	15272.22
447.707	15318.55
447.924	15364.47
448.141	15409.62
448.359	15463.09
448.576	15515.38
448.794	15565.76
449.011	15607.44
449.228	15660.58
449.446	15712.82
449.663	15758.65
449.88	15810.56
450.098	15857.49
450.315	15910.38
450.532	15957.05
450.749	16007.6
450.967	16062.98
451.184	16112.13
451.401	16164.27
451.618	16206.58
451.835	16254.51
452.052	16295.55
452.27	16345.42
452.487	16399.24
452.704	16445.47
452.921	16497.55
453.138	16547.95
453.355	16586.49
453.572	16627.73
453.789	16676
454.006	16722.76
454.223	16769.82
454.44	16828.84
454.657	16871.8
454.874	16905.64
455.091	16948.56
455.308	16993.64
455.525	17033.75
455.742	17077.6
455.959	17126.6
456.176	17167.07
456.393	17223.18
456.609	17266.4
456.826	17311.2
457.043	17358.15
457.26	17412.64
457.477	17460.95
457.693	17503.53
457.91	17550
458.127	17594.69
458.344	17645.98
458.56	17690.56
458.777	17723.02
458.994	17759.76
459.21	17800.13
459.427	17836.15
459.644	17873.69
459.86	17909.35
460.077	17944.6
460.294	17979.47
460.51	18015.29
460.727	18043.89
460.943	18081.4
461.16	18116.96
461.376	18154.22
461.593	18187.96
461.809	18230.65
462.026	18269.55
462.242	18310.24
462.459	18356.31
462.675	18395.69
462.892	18434.35
463.108	18468
463.324	18509.89
463.541	18552.84
463.757	18597.24
463.974	18634.78
464.19	18677.31
464.406	18722.36
464.623	18767.85
464.839	18808.56
465.055	18854.65
465.271	18902.84
465.488	18959.02
465.704	19010.33
465.92	19056.75
466.136	19104.25
466.353	19162.42
466.569	19214.76
466.785	19262.42
467.001	19313.33
467.217	19369.8
467.433	19431.38
467.649	19487.76
467.865	19547.47
468.082	19597.35
468.298	19658.42
468.514	19720.87
468.73	19783.84
468.946	19842.71
469.162	19909.16
469.378	19973.25
469.594	20033.15
469.81	20094.82
470.026	20166.98
470.242	20224.38
470.457	20293.25
470.673	20358.64
470.889	20428.98
471.105	20495.33
471.321	20570.8
471.537	20639.44
471.753	20705.8
471.968	20775.27
472.184	20841.51
472.4	20912.78
472.616	20985.89
472.832	21060.89
473.047	21139.47
473.263	21206.29
473.479	21277.69
473.694	21341.65
473.91	21414.04
474.126	21487.87
474.341	21565.25
474.557	21645.13
474.773	21706.09
474.988	21777.13
475.204	21853.44
475.42	21926.09
475.635	21997.71
475.851	22067.31
476.066	22139.11
476.282	22215.56
476.497	22296.67
476.713	22362.91
476.928	22423.8
477.144	22500.98
477.359	22574.55
477.575	22630.25
477.79	22691.85
478.005	22761.38
478.221	22823.49
478.436	22883.98
478.651	22936.65
478.867	22980.58
479.082	23035.65
479.297	23099.93
479.513	23157.91
479.728	23205.25
479.943	23258.42
480.159	23307.13
480.374	23358.44
480.589	23410.44
480.804	23464.2
481.019	23514.62
481.235	23568.29
481.45	23626.95
481.665	23669.78
481.88	23713.27
482.095	23774.05
482.31	23830.36
482.525	23881.98
482.741	23925.29
482.956	23972.29
483.171	24011.96
483.386	24064.98
483.601	24116.31
483.816	24158.93
484.031	24203.36
484.246	24242.53
484.461	24281.04
484.676	24316.36
484.891	24359.25
485.105	24406.84
485.32	24446.51
485.535	24484.33
485.75	24522.71
485.965	24564.98
486.18	24608.56
486.395	24650.93
486.609	24697.47
486.824	24742.15
487.039	24791.33
487.254	24835.51
487.469	24868.44
487.683	24916.09
487.898	24964.78
488.113	25003.62
488.327	25036.45
488.542	25069.76
488.757	25109.93
488.972	25154.22
489.186	25187.27
489.401	25223.82
489.615	25255.98
489.83	25295.36
490.045	25324.33
490.259	25356.85
490.474	25382.22
490.688	25420.8
490.903	25447.18
491.117	25478.29
491.332	25493.36
491.546	25526.84
491.761	25560.15
491.975	25597.38
492.19	25631.16
492.404	25665.04
492.618	25699.25
492.833	25737.33
493.047	25766
493.262	25802.11
493.476	25828.65
493.69	25874.6
493.905	25897.53
494.119	25916.02
494.333	25941.25
494.547	25966.42
494.762	25996.93
494.976	26029.02
495.19	26056.33
495.404	26081.22
495.619	26108.62
495.833	26140.47
496.047	26153.89
496.261	26173.53
496.475	26197.47
496.689	26206.53
496.903	26215.47
497.117	26212.29
497.332	26200.67
497.546	26195.15
497.76	26189.53
497.974	26177.47
498.188	26162.27
498.402	26155.78
498.616	26144.58
498.83	26134.76
499.044	26130.93
499.258	26133.67
499.472	26129.13
499.685	26144.11
499.899	26144.91
500.113	26154
500.327	26159.87
500.541	26169.65
500.755	26184.55
500.969	26205.49
501.183	26220.93
501.396	26232.35
501.61	26239.69
501.824	26260.89
502.038	26283.6
502.251	26311.15
502.465	26328.49
502.679	26356.36
502.892	26374.11
503.106	26389.27
503.32	26406.25
503.533	26426.24
503.747	26446.51
503.961	26483.71
504.174	26509.25
504.388	26532.56
504.602	26562.02
504.815	26591.45
505.029	26630.47
505.242	26666.13
505.456	26708.35
505.669	26757.42
505.883	26805.67
506.096	26860.73
506.31	26909.65
506.523	26962.53
506.736	27009.8
506.95	27058
507.163	27118.93
507.377	27170.64
507.59	27234.02
507.803	27292.78
508.017	27351.38
508.23	27419.09
508.443	27480.8
508.657	27535.82
508.87	27602.2
509.083	27668.09
509.296	27739.55
509.51	27815.04
509.723	27894.82
509.936	27973.58
510.149	28056.45
510.363	28142.64
510.576	28225.73
510.789	28323.62
511.002	28419.55
511.215	28520.98
511.428	28619.25
511.641	28724.29
511.854	28826.05
512.067	28917.56
512.28	29031.76
512.493	29137.62
512.707	29232.25
512.92	29333.33
513.132	29424.84
513.345	29521.38
513.558	29625.24
513.771	29739.49
513.984	29846.35
514.197	29940.42
514.41	30053.75
514.623	30155.24
514.836	30263.38
515.049	30368.36
515.262	30474.16
515.474	30581.27
515.687	30693.71
515.9	30793.85
516.113	30886.67
516.325	30978.84
516.538	31077.85
516.751	31165.98
516.964	31246.49
517.176	31327.02
517.389	31414.58
517.602	31496.65
517.814	31579.6
518.027	31658.47
518.24	31725.27
518.452	31796.78
518.665	31872.35
518.877	31948.45
519.09	32017.2
519.303	32096.04
519.515	32166.27
519.728	32240.62
519.94	32312.33
520.153	32377.53
520.365	32440.44
520.578	32513.96
520.79	32581.6
521.002	32643.53
521.215	32703.15
521.427	32766.84
521.64	32816.8
521.852	32873.2
522.064	32922.18
522.277	32974.22
522.489	33036.82
522.701	33086.07
522.914	33138.56
523.126	33186.6
523.338	33231.51
523.551	33278.64
523.763	33329.24
523.975	33384.85
524.187	33427.42
524.399	33481.44
524.612	33519.98
524.824	33552.85
525.036	33592.8
525.248	33633.73
525.46	33679.42
525.672	33725.18
525.884	33764.05
526.096	33798.69
526.308	33826.33
526.521	33868.07
526.733	33888.45
526.945	33921.82
527.157	33948.24
527.369	33984.53
527.581	34010.42
527.793	34039.13
528.004	34059.35
528.216	34090.6
528.428	34131.31
528.64	34168.31
528.852	34191.05
529.064	34212.27
529.276	34240.47
529.488	34275.93
529.699	34296.55
529.911	34330.09
530.123	34356.82
530.335	34391.96
530.547	34415.31
530.758	34434.53
530.97	34454.69
531.182	34482.16
531.393	34528.29
531.605	34562.64
531.817	34591.51
532.029	34635.67
532.24	34666.49
532.452	34682.09
532.663	34698.65
532.875	34713.36
533.087	34730.62
533.298	34762.58
533.51	34793.51
533.721	34819.22
533.933	34840.45
534.144	34857.47
534.356	34865.42
534.567	34869.78
534.779	34904.93
534.99	34929
535.202	34967.78
535.413	34987.33
535.624	34998.11
535.836	35008.69
536.047	35019.07
536.259	35029.95
536.47	35042.2
536.681	35060.82
536.893	35085.38
537.104	35089.11
537.315	35102.87
537.526	35111.96
537.738	35131.11
537.949	35146.85
538.16	35166.8
538.371	35179.71
538.582	35203.31
538.794	35226.4
539.005	35238.27
539.216	35255.05
539.427	35274.51
539.638	35288.07
539.849	35298.36
540.06	35306.98
540.272	35321.31
540.483	35323.84
540.694	35340.73
540.905	35346.62
541.116	35361.04
541.327	35376.35
541.538	35377.98
541.749	35387.8
541.96	35405.69
542.17	35411.73
542.381	35423.25
542.592	35428.44
542.803	35438.09
543.014	35435.69
543.225	35439.64
543.436	35436.84
543.647	35436.02
543.857	35445.42
544.068	35465.25
544.279	35471.91
544.49	35481.24
544.701	35493.47
544.911	35496.84
545.122	35507.07
545.333	35513.98
545.543	35519.73
545.754	35528
545.965	35539.38
546.175	35553.69
546.386	35549.82
546.597	35559.82
546.807	35573.18
547.018	35573.04
547.229	35586.18
547.439	35594.98
547.65	35608
547.86	35611.51
548.071	35618.78
548.281	35623.95
548.492	35630.07
548.702	35637.65
548.913	35635.49
549.123	35640.91
549.333	35649.87
549.544	35649.18
549.754	35645.31
549.965	35658.07
550.175	35664.75
550.385	35689.93
550.596	35705.85
550.806	35709.98
551.016	35709.73
551.227	35722.25
551.437	35724.29
551.647	35725.27
551.857	35745.64
552.068	35768.82
552.278	35770.35
552.488	35782.16
552.698	35776.02
552.908	35775.11
553.119	35788.89
553.329	35798.42
553.539	35789.56
553.749	35787.67
553.959	35789.49
554.169	35778.51
554.379	35767.65
554.589	35768.02
554.799	35762.31
555.009	35762.47
555.219	35749.87
555.429	35737.87
555.639	35737.38
555.849	35752.84
556.059	35752.95
556.269	35751.36
556.479	35743
556.689	35742.42
556.899	35735.55
557.109	35747.24
557.319	35747.31
557.528	35754.16
557.738	35752.96
557.948	35740.09
558.158	35717.02
558.368	35710.58
558.577	35704
558.787	35708.85
558.997	35701.42
559.207	35689.45
559.416	35671.87
559.626	35650.47
559.836	35647.78
560.045	35637.96
560.255	35641.47
560.465	35643.8
560.674	35648.6
560.884	35647.82
561.093	35640.15
561.303	35630.62
561.512	35632.2
561.722	35627.15
561.932	35623.71
562.141	35609.15
562.351	35602.16
562.56	35587.58
562.769	35586.42
562.979	35569.42
563.188	35562.42
563.398	35554.73
563.607	35560.35
563.817	35551.51
564.026	35546.49
564.235	35546.31
564.445	35546.85
564.654	35534.42
564.863	35534.11
565.073	35514.29
565.282	35505.62
565.491	35488.15
565.7	35471.62
565.91	35450.11
566.119	35426.45
566.328	35403.65
566.537	35377.27
566.746	35349.42
566.956	35336.31
567.165	35322.38
567.374	35317.24
567.583	35305.65
567.792	35301.27
568.001	35294.36
568.21	35267.25
568.419	35250.51
568.628	35241.45
568.837	35213.71
569.046	35188.2
569.255	35158.6
569.464	35117.09
569.673	35072.51
569.882	35043.67
570.091	35012.96
570.3	34977.78
570.509	34964.35
570.718	34946.33
570.927	34916.87
571.135	34913.13
571.344	34907.33
571.553	34899.67
571.762	34898.95
571.971	34910.67
572.18	34897.96
572.388	34867.25
572.597	34847.78
572.806	34827.29
573.014	34810.84
573.223	34790.82
573.432	34763.49
573.641	34736.75
573.849	34713.56
574.058	34677.75
574.266	34639.36
574.475	34614.82
574.684	34615
574.892	34602.29
575.101	34583.56
575.309	34573.11
575.518	34555.8
575.726	34537.16
575.935	34518.24
576.143	34499.15
576.352	34482.71
576.56	34472.65
576.769	34454.4
576.977	34430.49
577.186	34403.15
577.394	34383.65
577.602	34351.56
577.811	34326
578.019	34309.85
578.228	34285.25
578.436	34258.11
578.644	34239.29
578.852	34201.75
579.061	34179.53
579.269	34147.05
579.477	34127.07
579.685	34099.27
579.894	34080.07
580.102	34055.53
580.31	34032.11
580.518	34017.75
580.726	33997.56
580.935	33978.38
581.143	33958.78
581.351	33934.35
581.559	33920.82
581.767	33900.95
581.975	33885.82
582.183	33862.69
582.391	33854.84
582.599	33824.11
582.807	33794.58
583.015	33773.65
583.223	33745.95
583.431	33728.11
583.639	33703.31
583.847	33674.42
584.055	33654.69
584.263	33623.29
584.471	33603
584.678	33568.47
584.886	33550.87
585.094	33531.38
585.302	33503.8
585.51	33476.49
585.718	33454.76
585.925	33430.38
586.133	33405.47
586.341	33380.07
586.549	33363.09
586.756	33342.58
586.964	33309.55
587.172	33280.96
587.379	33245.4
587.587	33223.18
587.795	33201.16
588.002	33174.65
588.21	33156.11
588.417	33126.4
588.625	33084.4
588.833	33051.27
589.04	33015.65
589.248	32997.44
589.455	32978.96
589.663	32953.55
589.87	32927.56
590.078	32904.33
590.285	32876.45
590.492	32843.51
590.7	32822.93
590.907	32807.56
591.115	32784.84
591.322	32754.29
591.529	32728.82
591.737	32695.36
591.944	32682.93
592.151	32646.4
592.359	32607.84
592.566	32570.2
592.773	32527.44
592.981	32501.38
593.188	32462.25
593.395	32427.22
593.602	32401.25
593.809	32367.38
594.017	32335.89
594.224	32295.82
594.431	32269.25
594.638	32241.42
594.845	32216.73
595.052	32194.89
595.259	32159.31
595.466	32147.4
595.673	32118.44
595.88	32085.55
596.088	32066.69
596.295	32039.2
596.502	32015.96
596.709	31985.6
596.915	31958.93
597.122	31934.25
597.329	31902.76
597.536	31876.07
597.743	31846.4
597.95	31816.8
598.157	31791.84
598.364	31740.29
598.571	31692.36
598.777	31634.44
598.984	31582.24
599.191	31537.02
599.398	31481.64
599.605	31432.76
599.811	31367.05
600.018	31301.35
600.225	31254.35
600.431	31188.62
600.638	31150.35
600.845	31111
601.052	31086.24
601.258	31053.02
601.465	30997.56
601.671	30934.45
601.878	30860.65
602.085	30777.55
602.291	30671.18
602.498	30545.38
602.704	30411.85
602.911	30246.33
603.117	30066.98
603.324	29852.05
603.53	29637.16
603.737	29414.85
603.943	29184.49
604.15	28945.98
604.356	28706.56
604.562	28458.84
604.769	28200.2
604.975	27939.84
605.181	27686.69
605.388	27428.4
605.594	27178.56
605.8	26917.18
606.007	26648.98
606.213	26375.8
606.419	26110.4
606.625	25839.07
606.832	25569.64
607.038	25305.75
607.244	25050.71
607.45	24776.96
607.656	24512.45
607.863	24236.44
608.069	23969.31
608.275	23704.33
608.481	23445.98
608.687	23179.35
608.893	22906.15
609.099	22643.2
609.305	22373.58
609.511	22103.07
609.717	21828.89
609.923	21540.82
610.129	21260.07
610.335	20967.73
610.541	20681.64
610.747	20381.22
610.953	20086.76
611.159	19798.07
611.365	19502.11
611.571	19195.04
611.776	18881.65
611.982	18573.93
612.188	18269.65
612.394	17960.67
612.6	17654.73
612.806	17340.98
613.011	17037.98
613.217	16725.85
613.423	16413.35
613.628	16102.42
613.834	15805.93
614.04	15509.82
614.246	15217.75
614.451	14929.84
614.657	14652.44
614.862	14376.36
615.068	14112.76
615.274	13847.36
615.479	13589.09
615.685	13339.05
615.89	13093.55
616.096	12845.13
616.301	12594.16
616.507	12351.27
616.712	12114.09
616.918	11867.02
617.123	11613.49
617.329	11354.4
617.534	11098.25
617.74	10840.18
617.945	10577.71
618.15	10298.93
618.356	9866.56
618.561	9078.31
618.766	8121.69
618.972	7127.11
619.177	6162.64
619.382	5228.91
619.588	4316.95
619.793	3772.94
619.998	3136.09
620.203	2372.3
620.408	1446.71
620.614	540.97
