Data from test1_MAYP1115451__87__10-17-38-749.txt Node

Date: Wed Jun 12 10:17:38 MDT 2024
User: Modes Lab
Spectrometer: MAYP111545
Trigger mode: 0
Integration Time (sec): 8.000000E-3
Scans to average: 5
Electric dark correction enabled: true
Nonlinearity correction enabled: false
Boxcar width: 5
XAxis mode: Wavelengths
Number of Pixels in Spectrum: 2068
>>>>>Begin Spectral Data<<<<<
165.214	164.3
165.449	164.31
165.683	173.6
165.918	182.58
166.152	189.18
166.387	194.69
166.621	126.47
166.856	165.29
167.09	184.07
167.325	206.93
167.559	222.93
167.794	236.84
168.028	244.8
168.263	245.65
168.497	245.36
168.732	245.71
168.966	246.56
169.2	247.89
169.435	249.51
169.669	250.75
169.903	252.2
170.138	254.05
170.372	255.67
170.606	257.05
170.841	258.65
171.075	260.13
171.309	262.11
171.544	263.15
171.778	265.24
172.012	266.49
172.246	268.62
172.48	270.82
172.715	273.38
172.949	275.51
173.183	277.18
173.417	279.35
173.651	281.16
173.885	282.78
174.119	283.58
174.354	284
174.588	284.13
174.822	284.58
175.056	284.89
175.29	284.04
175.524	283.24
175.758	282.87
175.992	283.09
176.226	283.29
176.46	283.09
176.694	283.42
176.928	284
177.162	285.58
177.396	287.04
177.63	287.84
177.864	288.89
178.097	290.58
178.331	291.16
178.565	292.11
178.799	292.29
179.033	292.96
179.267	294.27
179.5	294.87
179.734	295.87
179.968	296.18
180.202	297.13
180.436	298.02
180.669	298.78
180.903	299.96
181.137	301.18
181.371	302.75
181.604	303.44
181.838	305.38
182.072	306.51
182.305	306.69
182.539	307.73
182.772	308.49
183.006	309.33
183.24	310.67
183.473	314.71
183.707	315.62
183.94	316.62
184.174	317.89
184.408	318.2
184.641	318.36
184.875	320.2
185.108	321.69
185.342	323.82
185.575	325.98
185.808	327.56
186.042	325.78
186.275	325.96
186.509	326.73
186.742	328.45
186.976	329.89
187.209	332.29
187.442	333.44
187.676	334.15
187.909	335.64
188.142	335.64
188.376	336.05
188.609	336.98
188.842	339.4
189.076	341.36
189.309	342.47
189.542	344.2
189.775	345.87
190.009	347.49
190.242	349.35
190.475	350.55
190.708	353.6
190.941	355.93
191.174	357.82
191.408	358.6
191.641	360.49
191.874	362.6
192.107	364.73
192.34	367.04
192.573	368.22
192.806	370.02
193.039	371.51
193.272	372.13
193.505	373.73
193.738	376.07
193.971	378.67
194.204	380.64
194.437	381.96
194.67	383.58
194.903	385.36
195.136	385.95
195.369	388.15
195.602	389.47
195.835	392.35
196.068	394.18
196.301	397.07
196.533	398.82
196.766	400.13
196.999	402.31
197.232	403.55
197.465	404.65
197.698	408.24
197.93	409.75
198.163	412.27
198.396	413.87
198.629	415.98
198.861	417.98
199.094	420.29
199.327	423.42
199.559	425.27
199.792	426.76
200.025	428.73
200.257	430.53
200.49	432.64
200.723	434.53
200.955	436.64
201.188	438.51
201.42	440.04
201.653	442.05
201.886	444.42
202.118	447.69
202.351	449.85
202.583	452.6
202.816	455.13
203.048	457.69
203.281	459.4
203.513	461.6
203.745	464.93
203.978	466.33
204.21	467.73
204.443	469.36
204.675	469.98
204.907	472.91
205.14	474.93
205.372	476.89
205.605	479.18
205.837	481.91
206.069	484.89
206.302	485.89
206.534	488.82
206.766	491.18
206.998	492.98
207.231	496.2
207.463	498.6
207.695	501.4
207.927	502.8
208.159	504.85
208.392	507.05
208.624	508.45
208.856	509.62
209.088	512.05
209.32	515.13
209.552	518.05
209.784	519.56
210.017	521.42
210.249	522.55
210.481	525.73
210.713	527.56
210.945	528.98
211.177	531.58
211.409	535.02
211.641	535.95
211.873	536.98
212.105	538.64
212.337	541.56
212.569	543.05
212.801	546.24
213.033	548.02
213.264	550.04
213.496	552.78
213.728	554.33
213.96	556.22
214.192	558.4
214.424	559.91
214.656	561.87
214.887	562.91
215.119	566.98
215.351	567.4
215.583	568.73
215.815	570.62
216.046	572.25
216.278	572.49
216.51	573.29
216.741	574.95
216.973	577.38
217.205	578.4
217.436	579.67
217.668	580.8
217.9	582.75
218.131	584.16
218.363	584.93
218.595	585.85
218.826	588.42
219.058	590.24
219.289	590.75
219.521	590.89
219.752	592.11
219.984	593.75
220.215	594.56
220.447	594.91
220.678	595.82
220.91	596
221.141	597
221.373	599.22
221.604	600.24
221.836	603.09
222.067	605.45
222.298	606.6
222.53	608.09
222.761	608.24
222.993	610.27
223.224	613.04
223.455	614.8
223.686	615.67
223.918	614.29
224.149	614.8
224.38	614.05
224.612	614.87
224.843	613.96
225.074	613.78
225.305	614.49
225.536	614.95
225.768	613.75
225.999	613.45
226.23	614.13
226.461	615.69
226.692	616.15
226.923	617.36
227.155	617.89
227.386	619.75
227.617	619.71
227.848	620.07
228.079	620.91
228.31	621.05
228.541	622.85
228.772	623.56
229.003	623.35
229.234	623.85
229.465	624.76
229.696	623.62
229.927	623.58
230.158	624.49
230.389	623.55
230.62	622.78
230.85	623.85
231.081	624.84
231.312	623.56
231.543	624.44
231.774	624.47
232.005	624.25
232.236	626.33
232.466	626.67
232.697	626.65
232.928	626.56
233.159	626.36
233.389	626.07
233.62	625.55
233.851	626.69
234.082	624.45
234.312	624.35
234.543	623.71
234.774	623.55
235.004	622.65
235.235	623.38
235.466	624.58
235.696	624.76
235.927	624.25
236.157	622.45
236.388	622.15
236.618	623.69
236.849	624.67
237.08	626.09
237.31	625
237.541	624.56
237.771	622.16
238.002	621.56
238.232	621.45
238.463	621.45
238.693	622.62
238.923	622.91
239.154	622.95
239.384	621.67
239.615	619.02
239.845	617.09
240.075	618.13
240.306	619.8
240.536	619.69
240.766	618.76
240.997	618.25
241.227	617.71
241.457	616.4
241.687	614.8
241.918	615.31
242.148	615.07
242.378	616.04
242.608	614.96
242.839	613.27
243.069	611.91
243.299	612.42
243.529	612.56
243.759	612.09
243.989	611.42
244.22	611.15
244.45	609.02
244.68	609.42
244.91	608.13
245.14	607.07
245.37	606.89
245.6	606.76
245.83	605.04
246.06	603.96
246.29	602.87
246.52	602.51
246.75	602.2
246.98	603.18
247.21	602.2
247.44	603.07
247.67	602.22
247.9	601.76
248.13	601.09
248.359	601.02
248.589	600.18
248.819	600.67
249.049	600.04
249.279	599.62
249.509	597.33
249.738	597.25
249.968	594.78
250.198	595.24
250.428	593.82
250.657	593.2
250.887	592.07
251.117	590.93
251.347	591.36
251.576	591.42
251.806	591.69
252.036	592.04
252.265	591.98
252.495	591.36
252.725	591.15
252.954	590.38
253.184	590
253.413	589.22
253.643	590.53
253.873	587.76
254.102	587.16
254.332	585.82
254.561	585.67
254.791	583.91
255.02	583.33
255.25	582.58
255.479	581.44
255.708	580.65
255.938	580.58
256.167	578.64
256.397	577.87
256.626	577.42
256.856	576.31
257.085	575.2
257.314	575.93
257.544	575.35
257.773	574.49
258.002	575.35
258.232	574.53
258.461	574.33
258.69	573.71
258.919	573.04
259.149	572.16
259.378	572.93
259.607	570.87
259.836	569.24
260.065	569.93
260.295	568.56
260.524	568.64
260.753	568.75
260.982	566.56
261.211	566.56
261.44	565.42
261.669	564.51
261.899	562.53
262.128	563.49
262.357	562.87
262.586	562.02
262.815	561.2
263.044	560.47
263.273	561.96
263.502	563.47
263.731	561.45
263.96	561.47
264.189	560.51
264.418	560.36
264.646	558.98
264.875	556.13
265.104	553.89
265.333	553.18
265.562	550.96
265.791	546.53
266.02	545.31
266.249	544.65
266.477	544.35
266.706	542.82
266.935	542.18
267.164	542.53
267.393	543.67
267.621	544.09
267.85	542.64
268.079	543.25
268.307	544.25
268.536	542.15
268.765	543.13
268.993	542.6
269.222	543.62
269.451	542.51
269.679	543.13
269.908	542.18
270.137	542.22
270.365	543.04
270.594	542.87
270.822	542.38
271.051	544.2
271.279	544.89
271.508	544.85
271.736	545.44
271.965	545.95
272.193	545.49
272.422	546.51
272.65	546.89
272.879	546.67
273.107	544.87
273.336	544.53
273.564	544.07
273.792	541.05
274.021	539.51
274.249	537.33
274.477	535.93
274.706	533.53
274.934	530.76
275.162	527.89
275.391	526.71
275.619	525.95
275.847	525.27
276.075	523.18
276.304	522.6
276.532	522.58
276.76	521.58
276.988	520.35
277.216	518.58
277.445	518.22
277.673	517.93
277.901	518.4
278.129	517.65
278.357	517.93
278.585	518.35
278.813	518.04
279.041	517.78
279.269	517.6
279.497	517.96
279.725	518.15
279.954	518.82
280.182	519.58
280.41	518.31
280.637	518.45
280.865	516.64
281.093	515.11
281.321	515.44
281.549	513.44
281.777	512.55
282.005	511.71
282.233	511.67
282.461	511.05
282.689	509.87
282.916	509.36
283.144	508.78
283.372	507.87
283.6	507.22
283.828	506
284.055	505.78
284.283	505.05
284.511	504.55
284.739	503.04
284.966	502.65
285.194	501.95
285.422	500.69
285.649	499.62
285.877	499.04
286.105	499.44
286.332	498.82
286.56	498.47
286.788	498.31
287.015	497.87
287.243	498.98
287.47	498.36
287.698	498.05
287.925	499.29
288.153	498.95
288.381	499.93
288.608	498.75
288.836	498.15
289.063	497.16
289.29	495.8
289.518	495.89
289.745	494.91
289.973	495.13
290.2	494.75
290.428	492.58
290.655	492.51
290.882	491.25
291.11	491.36
291.337	491.51
291.564	491.33
291.792	491.78
292.019	491.45
292.246	489.87
292.473	487.91
292.701	486.51
292.928	486
293.155	485.31
293.382	483.31
293.61	480.75
293.837	479.75
294.064	479.8
294.291	478.91
294.518	477.93
294.745	478.36
294.972	478.51
295.2	477.96
295.427	478
295.654	476.84
295.881	476.42
296.108	477.25
296.335	478.44
296.562	478.13
296.789	477.56
297.016	477.22
297.243	476.33
297.47	475.89
297.697	475.96
297.924	474.93
298.151	475.82
298.378	475.62
298.604	475.04
298.831	473.13
299.058	472.64
299.285	473.13
299.512	471.87
299.739	471.36
299.966	470.49
300.192	471.31
300.419	470.4
300.646	469.33
300.873	468.2
301.099	467.36
301.326	466.2
301.553	465.11
301.78	465
302.006	464.71
302.233	464.22
302.46	463.55
302.686	461.95
302.913	461.75
303.14	460.75
303.366	461.45
303.593	461.53
303.819	461.58
304.046	461.18
304.272	459.78
304.499	460.73
304.725	461.36
304.952	461.31
305.179	460.91
305.405	461.65
305.631	462.15
305.858	462.04
306.084	461.75
306.311	462.07
306.537	462.4
306.764	462.35
306.99	460.25
307.216	458.87
307.443	458.69
307.669	458.47
307.895	457.85
308.122	457.2
308.348	456.29
308.574	455.09
308.801	454.24
309.027	454.24
309.253	454.95
309.479	455.16
309.706	455.33
309.932	454.67
310.158	454.67
310.384	453.91
310.61	454.33
310.837	454.8
311.063	454.67
311.289	454.58
311.515	452.65
311.741	450.47
311.967	450.2
312.193	449.84
312.419	449.64
312.645	448.96
312.871	449.25
313.097	448.51
313.323	448.11
313.549	448.55
313.775	448.02
314.001	449.6
314.227	450.55
314.453	451.71
314.679	452.55
314.905	453.69
315.131	454.78
315.357	454.96
315.583	455.6
315.809	455.73
316.034	456.73
316.26	456.98
316.486	456.78
316.712	457.73
316.938	457.33
317.163	456.91
317.389	456.09
317.615	455.25
317.841	456.49
318.066	457.75
318.292	459.35
318.518	460.69
318.743	461.6
318.969	462.42
319.195	463.15
319.42	464.36
319.646	465.78
319.872	467.38
320.097	470.24
320.323	470.4
320.548	471.84
320.774	472.78
320.999	472.64
321.225	473.58
321.45	475.15
321.676	475.42
321.901	475.49
322.127	477.51
322.352	479.02
322.578	478.2
322.803	479.82
323.029	480.73
323.254	482.82
323.479	484.2
323.705	486.45
323.93	488.25
324.155	490.16
324.381	493.02
324.606	494.07
324.831	496.22
325.057	499.53
325.282	501.07
325.507	503.15
325.732	504.56
325.958	506.6
326.183	507.96
326.408	509.25
326.633	512.47
326.858	514.31
327.084	516.55
327.309	519.13
327.534	521.45
327.759	525.4
327.984	528.15
328.209	529.65
328.434	533.71
328.659	537.15
328.884	540.98
329.109	543.44
329.334	546.6
329.559	549.82
329.784	552.18
330.009	555.29
330.234	557.8
330.459	561.15
330.684	565.87
330.909	568.27
331.134	572.78
331.359	575.89
331.584	580.33
331.809	583.89
332.034	588.53
332.259	593.62
332.483	598.18
332.708	602.82
332.933	606.98
333.158	611.24
333.383	616.75
333.607	621.38
333.832	627.13
334.057	631.75
334.282	638.35
334.506	643.96
334.731	649.02
334.956	654.36
335.18	660.65
335.405	665.36
335.63	670.76
335.854	675.82
336.079	681.09
336.303	685.62
336.528	691.53
336.753	697.09
336.977	702.85
337.202	709.38
337.426	715.53
337.651	720.05
337.875	727.89
338.1	733.67
338.324	740.58
338.549	747.69
338.773	755.89
338.997	763.71
339.222	769.49
339.446	776.44
339.671	782.6
339.895	789.76
340.119	798.33
340.344	804.45
340.568	814.04
340.792	821.89
341.017	829.05
341.241	836.82
341.465	844.36
341.689	852.6
341.914	860.09
342.138	867.42
342.362	873.55
342.586	882.16
342.811	891.75
343.035	899.2
343.259	908.18
343.483	918.71
343.707	926.27
343.931	936.16
344.155	946.87
344.38	956.58
344.604	967
344.828	978.45
345.052	987.15
345.276	994.95
345.5	1005.18
345.724	1015.15
345.948	1022.13
346.172	1033.33
346.396	1041.71
346.62	1050.55
346.844	1059.45
347.068	1069.27
347.292	1079.82
347.515	1090.33
347.739	1102.27
347.963	1110.25
348.187	1120.18
348.411	1131.18
348.635	1141.6
348.859	1151.69
349.082	1163.16
349.306	1172.27
349.53	1184.16
349.754	1195.27
349.977	1205.47
350.201	1215.24
350.425	1228.44
350.649	1240.95
350.872	1251.84
351.096	1260.96
351.32	1273.33
351.543	1283.47
351.767	1296.71
351.99	1306.67
352.214	1316.07
352.438	1328.05
352.661	1338.47
352.885	1349.2
353.108	1359.87
353.332	1373.84
353.555	1386.02
353.779	1395.16
354.002	1405.02
354.226	1415.05
354.449	1426.44
354.673	1439.07
354.896	1450.16
355.12	1462.33
355.343	1473.93
355.566	1485.02
355.79	1495.73
356.013	1509.13
356.237	1523.15
356.46	1538.45
356.683	1552.65
356.907	1565.25
357.13	1580.4
357.353	1592.85
357.576	1606.2
357.8	1619.47
358.023	1632.09
358.246	1644.25
358.469	1656.33
358.693	1670.58
358.916	1682.47
359.139	1693.67
359.362	1707.67
359.585	1718.53
359.808	1731.44
360.031	1746.53
360.255	1759.87
360.478	1771.65
360.701	1784.44
360.924	1799.6
361.147	1809
361.37	1821.96
361.593	1836.78
361.816	1848.11
362.039	1862.2
362.262	1874.91
362.485	1888.13
362.708	1900.6
362.931	1915.27
363.154	1929.04
363.377	1939.62
363.599	1954.84
363.822	1968.4
364.045	1983.76
364.268	1997.42
364.491	2012.2
364.714	2027.44
364.936	2041.36
365.159	2057.02
365.382	2071.35
365.605	2087.6
365.828	2107.2
366.05	2119.82
366.273	2135.35
366.496	2148.8
366.718	2166.6
366.941	2180.98
367.164	2195.62
367.386	2211.65
367.609	2225.16
367.832	2244.35
368.054	2259.53
368.277	2272.04
368.5	2289.31
368.722	2307.16
368.945	2324.22
369.167	2340.44
369.39	2355.49
369.612	2374.69
369.835	2388.8
370.057	2406.71
370.28	2419.31
370.502	2434.95
370.725	2450.53
370.947	2469.38
371.169	2484.42
371.392	2501.09
371.614	2516.18
371.837	2535.84
372.059	2548.85
372.281	2567.15
372.504	2584.91
372.726	2601.49
372.948	2617.22
373.171	2634.76
373.393	2651.71
373.615	2666.84
373.837	2682.71
374.06	2701.58
374.282	2715.96
374.504	2734.42
374.726	2752.62
374.948	2770.75
375.17	2789.16
375.393	2810.58
375.615	2831.71
375.837	2848.76
376.059	2868.67
376.281	2889.24
376.503	2911.47
376.725	2932.35
376.947	2953.73
377.169	2971.84
377.391	2991.2
377.613	3011.67
377.835	3032.36
378.057	3051.36
378.279	3071.04
378.501	3094.96
378.723	3116.24
378.945	3134.62
379.167	3155.27
379.389	3176.4
379.611	3199.33
379.833	3221.35
380.054	3246.69
380.276	3268.82
380.498	3293.35
380.72	3320.35
380.942	3342.62
381.163	3367.84
381.385	3390.51
381.607	3415.38
381.829	3438.42
382.05	3463.67
382.272	3488.64
382.494	3513.16
382.716	3536.31
382.937	3559.64
383.159	3583.24
383.381	3606.73
383.602	3633.09
383.824	3660.75
384.045	3686.82
384.267	3712.91
384.488	3737.62
384.71	3762.25
384.932	3786.98
385.153	3816
385.375	3847.56
385.596	3876.87
385.818	3906.78
386.039	3930.67
386.261	3956.89
386.482	3985.58
386.703	4016.16
386.925	4043.51
387.146	4074.84
387.368	4103.51
387.589	4129.02
387.81	4152.29
388.032	4179.85
388.253	4208.75
388.474	4236.64
388.696	4267.6
388.917	4296.71
389.138	4322.15
389.359	4353.25
389.581	4381.75
389.802	4407.78
390.023	4436.91
390.244	4465.05
390.465	4492.31
390.687	4520.85
390.908	4553.16
391.129	4582.67
391.35	4606.98
391.571	4639.42
391.792	4666.15
392.013	4694.35
392.234	4727.89
392.455	4760.8
392.677	4794.22
392.898	4826.64
393.119	4856.73
393.34	4889.16
393.561	4920.8
393.782	4959.38
394.003	4990.85
394.223	5028.87
394.444	5060.76
394.665	5094.35
394.886	5127.82
395.107	5159.62
395.328	5194.04
395.549	5227.33
395.77	5259.56
395.99	5288.62
396.211	5323.76
396.432	5359.4
396.653	5392.47
396.874	5427.91
397.094	5465.38
397.315	5500.38
397.536	5532.75
397.757	5569.05
397.977	5607.02
398.198	5639.22
398.419	5678.71
398.639	5708.78
398.86	5741.98
399.081	5773.62
399.301	5809.2
399.522	5836.16
399.742	5866.38
399.963	5902.76
400.184	5934.64
400.404	5965.91
400.625	6001.91
400.845	6031.45
401.066	6062.65
401.286	6093.02
401.507	6127.82
401.727	6160.38
401.948	6196.73
402.168	6230.89
402.388	6263.09
402.609	6293.58
402.829	6329.07
403.05	6365.38
403.27	6400.51
403.49	6439.33
403.711	6477.76
403.931	6511.55
404.151	6548.36
404.372	6581.04
404.592	6615.87
404.812	6653.35
405.032	6687.91
405.253	6718
405.473	6749.45
405.693	6785.42
405.913	6816.62
406.133	6848.84
406.353	6886.69
406.574	6916.96
406.794	6957
407.014	6994.09
407.234	7027.51
407.454	7067.36
407.674	7101.75
407.894	7137.73
408.114	7172.07
408.334	7206.91
408.554	7243.89
408.774	7277.36
408.994	7317.07
409.214	7349.69
409.434	7383.89
409.654	7421.91
409.874	7456.45
410.094	7497.25
410.314	7531.89
410.534	7572.4
410.754	7612.45
410.974	7651.67
411.193	7689.65
411.413	7728.24
411.633	7768.82
411.853	7808.13
412.073	7849.04
412.292	7888.85
412.512	7928.89
412.732	7969.45
412.952	8009.44
413.171	8051.18
413.391	8092.15
413.611	8133.82
413.831	8177.02
414.05	8218.51
414.27	8261.47
414.489	8297.15
414.709	8339.24
414.929	8381.89
415.148	8424.35
415.368	8460.36
415.587	8500.51
415.807	8545.8
416.026	8585.42
416.246	8625.98
416.465	8671.29
416.685	8716.11
416.904	8759.91
417.124	8800.47
417.343	8845.58
417.563	8891.24
417.782	8941.89
418.002	8986.16
418.221	9026.73
418.44	9073.91
418.66	9115.58
418.879	9157.89
419.098	9199.55
419.318	9248.07
419.537	9291.47
419.756	9333.8
419.976	9376.07
420.195	9416.38
420.414	9465.33
420.633	9509.51
420.853	9549.64
421.072	9597.95
421.291	9641.24
421.51	9687.95
421.729	9731.78
421.948	9778.89
422.168	9820.67
422.387	9865.18
422.606	9912.33
422.825	9949.53
423.044	9997.16
423.263	10044.09
423.482	10086.56
423.701	10131.22
423.92	10174.07
424.139	10217.69
424.358	10262.71
424.577	10306.55
424.796	10357.16
425.015	10400.78
425.234	10449.38
425.453	10486.96
425.672	10529.58
425.891	10576.2
426.11	10619.56
426.328	10666.62
426.547	10710.22
426.766	10755.24
426.985	10806.84
427.204	10851.05
427.422	10901.2
427.641	10950.27
427.86	10999.45
428.079	11047.27
428.297	11091.38
428.516	11139.58
428.735	11188.49
428.954	11239.73
429.172	11287.04
429.391	11328.11
429.61	11374.82
429.828	11416.05
430.047	11460.11
430.265	11509.16
430.484	11555.05
430.703	11600.85
430.921	11647.42
431.14	11695.24
431.358	11741.42
431.577	11788.56
431.795	11844.73
432.014	11893.67
432.232	11946.45
432.451	11997.2
432.669	12044.64
432.887	12095.09
433.106	12147.07
433.324	12195.15
433.543	12243.13
433.761	12289.87
433.979	12343.09
434.198	12387.56
434.416	12432.16
434.634	12476.25
434.853	12521.05
435.071	12567.47
435.289	12617.93
435.507	12662.15
435.726	12711.53
435.944	12751.71
436.162	12798.89
436.38	12835.11
436.598	12878.71
436.817	12927.78
437.035	12974.58
437.253	13025.82
437.471	13074.15
437.689	13122.75
437.907	13174.53
438.125	13221.22
438.343	13269.8
438.561	13318.44
438.78	13371.87
438.998	13421.58
439.216	13471.02
439.434	13516.22
439.652	13555.51
439.869	13604.65
440.087	13648.8
440.305	13693.2
440.523	13739.42
440.741	13792.73
440.959	13844.04
441.177	13891.51
441.395	13941.78
441.613	13985.16
441.831	14033.58
442.048	14083.78
442.266	14129.6
442.484	14175.15
442.702	14225.44
442.919	14275.51
443.137	14320.47
443.355	14361.56
443.573	14412.76
443.79	14460.82
444.008	14511.27
444.226	14566.75
444.443	14619.35
444.661	14670.36
444.879	14722.76
445.096	14767.13
445.314	14815.45
445.532	14867.95
445.749	14915.87
445.967	14964.98
446.184	15015.33
446.402	15061.13
446.619	15105.96
446.837	15152.53
447.054	15198.15
447.272	15248.51
447.489	15298.15
447.707	15342.16
447.924	15387.2
448.141	15440.51
448.359	15485.47
448.576	15524.69
448.794	15578.18
449.011	15627.93
449.228	15675.71
449.446	15728.22
449.663	15775.44
449.88	15823.11
450.098	15872.91
450.315	15919.87
450.532	15963.35
450.749	16015.35
450.967	16069.16
451.184	16112.22
451.401	16159.64
451.618	16209.07
451.835	16255.33
452.052	16301.02
452.27	16351.73
452.487	16399.04
452.704	16449.29
452.921	16501.09
453.138	16542.09
453.355	16584.22
453.572	16632.02
453.789	16680.95
454.006	16726.53
454.223	16772.55
454.44	16820.98
454.657	16862.58
454.874	16914.42
455.091	16955.76
455.308	16999.91
455.525	17042.69
455.742	17092.2
455.959	17142.87
456.176	17186.98
456.393	17232.73
456.609	17275.53
456.826	17324.42
457.043	17378.47
457.26	17421.29
457.477	17471.67
457.693	17512.53
457.91	17564.89
458.127	17606.95
458.344	17642.51
458.56	17680.78
458.777	17725.42
458.994	17769.95
459.21	17802.56
459.427	17835.16
459.644	17867.84
459.86	17897.85
460.077	17935.62
460.294	17969.95
460.51	18010.49
460.727	18057
460.943	18094.8
461.16	18131.11
461.376	18165.42
461.593	18201.95
461.809	18237.75
462.026	18282.33
462.242	18324.82
462.459	18372.38
462.675	18410.6
462.892	18448.04
463.108	18481.71
463.324	18515.36
463.541	18556.18
463.757	18596.84
463.974	18643.05
464.19	18694.51
464.406	18734.45
464.623	18778.67
464.839	18817.71
465.055	18866.78
465.271	18917.42
465.488	18970.16
465.704	19030
465.92	19075.96
466.136	19127.04
466.353	19181.15
466.569	19222.65
466.785	19273.98
467.001	19328.93
467.217	19382.44
467.433	19435.47
467.649	19495.44
467.865	19552.76
468.082	19610.84
468.298	19677.09
468.514	19740.56
468.73	19795.8
468.946	19863.33
469.162	19925.42
469.378	19989.4
469.594	20062.6
469.81	20127.64
470.026	20187.76
470.242	20243.96
470.457	20303.82
470.673	20361.35
470.889	20430.98
471.105	20500.87
471.321	20562.49
471.537	20634.87
471.753	20700.47
471.968	20769.36
472.184	20838.51
472.4	20904.05
472.616	20982.85
472.832	21061.33
473.047	21143.42
473.263	21210.64
473.479	21279.49
473.694	21359.55
473.91	21431.33
474.126	21505.24
474.341	21574.47
474.557	21651.91
474.773	21721.62
474.988	21783.15
475.204	21854.02
475.42	21914.25
475.635	21983.4
475.851	22056.11
476.066	22127.71
476.282	22194.85
476.497	22262.38
476.713	22330.55
476.928	22388.76
477.144	22462.8
477.359	22534.8
477.575	22601.27
477.79	22668.58
478.005	22732.35
478.221	22791.76
478.436	22851.15
478.651	22906.16
478.867	22965.91
479.082	23016.76
479.297	23086.05
479.513	23143.87
479.728	23190.56
479.943	23233.93
480.159	23285.47
480.374	23340.58
480.589	23403.15
480.804	23454.56
481.019	23508.42
481.235	23556.2
481.45	23613.76
481.665	23657.56
481.88	23707.55
482.095	23766.96
482.31	23824.51
482.525	23878.35
482.741	23932.16
482.956	23970.02
483.171	24018.44
483.386	24065.71
483.601	24117.18
483.816	24160.2
484.031	24211.85
484.246	24247.24
484.461	24287.11
484.676	24326.15
484.891	24371.6
485.105	24408.84
485.32	24453.35
485.535	24488.76
485.75	24531.15
485.965	24571.18
486.18	24616.09
486.395	24648.96
486.609	24701.76
486.824	24742.96
487.039	24791.55
487.254	24829.62
487.469	24870.78
487.683	24906.02
487.898	24947.6
488.113	24988.98
488.327	25023.24
488.542	25059.93
488.757	25102.89
488.972	25130
489.186	25176.47
489.401	25210.69
489.615	25245.15
489.83	25279.85
490.045	25319.93
490.259	25356.71
490.474	25398.49
490.688	25436.31
490.903	25462
491.117	25489.95
491.332	25530.16
491.546	25554.85
491.761	25581.69
491.975	25612.2
492.19	25645.38
492.404	25670.27
492.618	25698.4
492.833	25727.15
493.047	25752.22
493.262	25781.8
493.476	25818.02
493.69	25842.93
493.905	25870.44
494.119	25901.73
494.333	25924.82
494.547	25948.96
494.762	25981.76
494.976	26007.71
495.19	26030.73
495.404	26067.31
495.619	26102.2
495.833	26121.76
496.047	26149.78
496.261	26174.22
496.475	26186.31
496.689	26205.73
496.903	26207.78
497.117	26209.73
497.332	26210.29
497.546	26205.95
497.76	26192.25
497.974	26182.24
498.188	26176.05
498.402	26151.82
498.616	26139.76
498.83	26135.45
499.044	26125.89
499.258	26128.16
499.472	26124.51
499.685	26127.67
499.899	26131.49
500.113	26144.18
500.327	26153.47
500.541	26158.07
500.755	26185.98
500.969	26198.89
501.183	26214.69
501.396	26233.96
501.61	26254.62
501.824	26281.55
502.038	26298.47
502.251	26319.84
502.465	26338.51
502.679	26358.31
502.892	26380.25
503.106	26391.75
503.32	26415.55
503.533	26439.42
503.747	26461.67
503.961	26485.78
504.174	26504.4
504.388	26536.62
504.602	26573.36
504.815	26606.38
505.029	26647.27
505.242	26693.89
505.456	26738.02
505.669	26780.4
505.883	26828.58
506.096	26882.58
506.31	26938.58
506.523	26988.36
506.736	27038.58
506.95	27093.36
507.163	27147.29
507.377	27204.36
507.59	27255.02
507.803	27315.27
508.017	27381.24
508.23	27440.49
508.443	27501.29
508.657	27553.09
508.87	27630.78
509.083	27703.56
509.296	27766.35
509.51	27846.55
509.723	27917.22
509.936	28001.04
510.149	28085.36
510.363	28164.55
510.576	28254.42
510.789	28344.47
511.002	28436.56
511.215	28536.33
511.428	28631.65
511.641	28741.76
511.854	28832.16
512.067	28932.71
512.28	29029.98
512.493	29121.33
512.707	29222.02
512.92	29322.69
513.132	29426.76
513.345	29535.02
513.558	29630.71
513.771	29734.04
513.984	29833.84
514.197	29937.69
514.41	30029.58
514.623	30137.45
514.836	30253.45
515.049	30360.09
515.262	30465.38
515.474	30565.89
515.687	30669.07
515.9	30771.35
516.113	30866.09
516.325	30955
516.538	31046.84
516.751	31153.51
516.964	31237.87
517.176	31322.2
517.389	31407.75
517.602	31486.04
517.814	31576.4
518.027	31654.29
518.24	31733.56
518.452	31818.55
518.665	31902.51
518.877	31986.58
519.09	32059.8
519.303	32130.76
519.515	32196.64
519.728	32263.78
519.94	32329.11
520.153	32380.87
520.365	32446.05
520.578	32510.2
520.79	32569.98
521.002	32627.31
521.215	32688.82
521.427	32750.8
521.64	32810.69
521.852	32874.13
522.064	32933.36
522.277	32999.78
522.489	33060.29
522.701	33113.18
522.914	33172.35
523.126	33226.35
523.338	33279.69
523.551	33323.35
523.763	33369.69
523.975	33417.76
524.187	33467.76
524.399	33506.02
524.612	33548.58
524.824	33595.49
525.036	33636.58
525.248	33664.47
525.46	33701.44
525.672	33737.18
525.884	33779.64
526.096	33812
526.308	33848.47
526.521	33870.56
526.733	33906.44
526.945	33927.24
527.157	33954.44
527.369	33990.16
527.581	34028.27
527.793	34057.47
528.004	34082.71
528.216	34109.38
528.428	34144.27
528.64	34167.4
528.852	34207.65
529.064	34237.93
529.276	34275.91
529.488	34299.13
529.699	34326.71
529.911	34348.6
530.123	34376.02
530.335	34407.75
530.547	34429.87
530.758	34452.35
530.97	34483.93
531.182	34502.69
531.393	34528.65
531.605	34560.89
531.817	34594.6
532.029	34620.85
532.24	34644.35
532.452	34675.64
532.663	34699.2
532.875	34724.95
533.087	34746.44
533.298	34772.16
533.51	34803.96
533.721	34821.95
533.933	34835.27
534.144	34855.29
534.356	34872.76
534.567	34893.98
534.779	34906.11
534.99	34920.04
535.202	34932.56
535.413	34947.89
535.624	34961.29
535.836	34966.76
536.047	34989.67
536.259	34997.18
536.47	35006.76
536.681	35018.73
536.893	35025.75
537.104	35038.78
537.315	35056.15
537.526	35075.78
537.738	35097.53
537.949	35119.85
538.16	35142.58
538.371	35159.29
538.582	35186.8
538.794	35208.38
539.005	35234.62
539.216	35269.31
539.427	35283.65
539.638	35300.33
539.849	35314.22
540.06	35324.78
540.272	35320.98
540.483	35334.62
540.694	35344.76
540.905	35355.33
541.116	35358.91
541.327	35368.18
541.538	35364.15
541.749	35384.98
541.96	35392.38
542.17	35413.25
542.381	35421.36
542.592	35437.78
542.803	35434.02
543.014	35437.45
543.225	35429.91
543.436	35431.27
543.647	35426.55
543.857	35437.76
544.068	35446.2
544.279	35457
544.49	35455.47
544.701	35468.95
544.911	35483.29
545.122	35496.29
545.333	35510.55
545.543	35532.33
545.754	35551.95
545.965	35564.27
546.175	35570.93
546.386	35576.53
546.597	35583.69
546.807	35599.62
547.018	35605.56
547.229	35603.98
547.439	35610.96
547.65	35607.76
547.86	35610.73
548.071	35613.65
548.281	35621.82
548.492	35637.96
548.702	35631.31
548.913	35633.55
549.123	35632.95
549.333	35635.85
549.544	35641.75
549.754	35652.82
549.965	35667.58
550.175	35679.4
550.385	35690.95
550.596	35695.67
550.806	35691.58
551.016	35709.67
551.227	35725.25
551.437	35734.04
551.647	35743.84
551.857	35759.78
552.068	35769.13
552.278	35780.11
552.488	35785.85
552.698	35781.58
552.908	35784.51
553.119	35798.65
553.329	35789.98
553.539	35785.44
553.749	35788.89
553.959	35781.4
554.169	35768.35
554.379	35758.02
554.589	35751.93
554.799	35736.02
555.009	35736.16
555.219	35738.73
555.429	35728.07
555.639	35730.64
555.849	35726.64
556.059	35723.42
556.269	35719.36
556.479	35726.73
556.689	35736.6
556.899	35731.31
557.109	35739.75
557.319	35746.42
557.528	35752.91
557.738	35744.91
557.948	35750.02
558.158	35749.18
558.368	35733.55
558.577	35731.91
558.787	35725.95
558.997	35709.98
559.207	35705.05
559.416	35690.65
559.626	35672.16
559.836	35652.85
560.045	35646.95
560.255	35638
560.465	35633.84
560.674	35640.76
560.884	35641.67
561.093	35631
561.303	35621
561.512	35609.96
561.722	35603.55
561.932	35610.36
562.141	35601.58
562.351	35591.98
562.56	35587.31
562.769	35578.91
562.979	35565.76
563.188	35546.07
563.398	35540.8
563.607	35540.31
563.817	35535.02
564.026	35534.27
564.235	35517.96
564.445	35516.98
564.654	35509.87
564.863	35496.76
565.073	35486.44
565.282	35470.95
565.491	35458.8
565.7	35444.04
565.91	35424.38
566.119	35405.98
566.328	35383.84
566.537	35367.33
566.746	35350.04
566.956	35343.84
567.165	35325.84
567.374	35311.67
567.583	35305.42
567.792	35299.24
568.001	35292.13
568.21	35271.53
568.419	35252.33
568.628	35232.45
568.837	35207.33
569.046	35185.53
569.255	35153.05
569.464	35130.91
569.673	35094.67
569.882	35059.05
570.091	35029.64
570.3	34999.6
570.509	34988.96
570.718	34971.71
570.927	34956.82
571.135	34947.05
571.344	34941.22
571.553	34935.38
571.762	34925.18
571.971	34919.78
572.18	34918.44
572.388	34902.24
572.597	34879.33
572.806	34852.55
573.014	34837.07
573.223	34813.96
573.432	34793.47
573.641	34761.4
573.849	34736.8
574.058	34712.62
574.266	34687.22
574.475	34656.53
574.684	34633.47
574.892	34621.95
575.101	34607.51
575.309	34588.02
575.518	34566.84
575.726	34549.58
575.935	34524.38
576.143	34500.87
576.352	34477.53
576.56	34455.73
576.769	34439.6
576.977	34423.45
577.186	34403.16
577.394	34376.04
577.602	34354.98
577.811	34342.35
578.019	34312.13
578.228	34290.53
578.436	34263.35
578.644	34248.11
578.852	34229.09
579.061	34201.78
579.269	34179.85
579.477	34152.35
579.685	34141.93
579.894	34119.53
580.102	34092.35
580.31	34066.36
580.518	34048.96
580.726	34036.44
580.935	34004.69
581.143	33973.69
581.351	33950.55
581.559	33923.49
581.767	33898.85
581.975	33862.07
582.183	33843.55
582.391	33821.49
582.599	33802.76
582.807	33778.96
583.015	33752.33
583.223	33735.78
583.431	33720.04
583.639	33692.78
583.847	33676.36
584.055	33658
584.263	33630.85
584.471	33600.56
584.678	33575.33
584.886	33557.2
585.094	33536.45
585.302	33516.42
585.51	33481.51
585.718	33455.42
585.925	33433.18
586.133	33405.91
586.341	33374.35
586.549	33356.22
586.756	33333.55
586.964	33310.29
587.172	33273.53
587.379	33242.69
587.587	33210.96
587.795	33185.31
588.002	33161.07
588.21	33133.62
588.417	33101.6
588.625	33071.31
588.833	33048.24
589.04	33017.82
589.248	32992.15
589.455	32978.02
589.663	32956.33
589.87	32935.18
590.078	32909.13
590.285	32882.53
590.492	32854.91
590.7	32834.84
590.907	32818.05
591.115	32779.53
591.322	32753.76
591.529	32720.93
591.737	32690.71
591.944	32649.69
592.151	32615.47
592.359	32586.4
592.566	32548.51
592.773	32522.35
592.981	32491.27
593.188	32453.95
593.395	32432.44
593.602	32394.13
593.809	32362.45
594.017	32326.98
594.224	32308.98
594.431	32275.25
594.638	32244.05
594.845	32212.44
595.052	32179.67
595.259	32158.85
595.466	32136.02
595.673	32113.96
595.88	32089.93
596.088	32073.85
596.295	32050.33
596.502	32019.31
596.709	31992.64
596.915	31969.91
597.122	31944.82
597.329	31918.22
597.536	31882.91
597.743	31852.07
597.95	31817.11
598.157	31778.38
598.364	31724.64
598.571	31672.4
598.777	31619.02
598.984	31564.85
599.191	31502.56
599.398	31451.62
599.605	31399.8
599.811	31338.98
600.018	31290.2
600.225	31231.45
600.431	31191.8
600.638	31149.6
600.845	31115.22
601.052	31092.51
601.258	31069.27
601.465	31033.49
601.671	30981.11
601.878	30914.58
602.085	30836.24
602.291	30720.76
602.498	30597.35
602.704	30451.27
602.911	30288.69
603.117	30104.42
603.324	29892.04
603.53	29661.24
603.737	29434.45
603.943	29191.75
604.15	28941.73
604.356	28689.85
604.562	28438.2
604.769	28187.44
604.975	27923.95
605.181	27669.96
605.388	27416.29
605.594	27153.02
605.8	26890.93
606.007	26624.89
606.213	26362.55
606.419	26102.55
606.625	25835.8
606.832	25585.78
607.038	25325.69
607.244	25066.09
607.45	24801.27
607.656	24530.47
607.863	24271.16
608.069	24010.8
608.275	23740.51
608.481	23472.42
608.687	23197.84
608.893	22929.47
609.099	22647.38
609.305	22367.89
609.511	22094.25
609.717	21820.96
609.923	21541.13
610.129	21253.71
610.335	20963.75
610.541	20676.31
610.747	20390.11
610.953	20097.98
611.159	19799.87
611.365	19499.42
611.571	19193.89
611.776	18882.75
611.982	18572.24
612.188	18262.09
612.394	17955.36
612.6	17643.55
612.806	17332.36
613.011	17020.16
613.217	16712.85
613.423	16404.82
613.628	16101.36
613.834	15808.62
614.04	15512.45
614.246	15226.27
614.451	14942.53
614.657	14662.02
614.862	14395.2
615.068	14127.84
615.274	13863.47
615.479	13606.73
615.685	13354.4
615.89	13111.93
616.096	12864.07
616.301	12628.6
616.507	12379.4
616.712	12132.98
616.918	11883.42
617.123	11621.53
617.329	11365.09
617.534	11109.07
617.74	10844.87
617.945	10582.67
618.15	10301.89
618.356	9866.78
618.561	9071.51
618.766	8110.75
618.972	7123.18
619.177	6158.49
619.382	5226.44
619.588	4315.44
619.793	3769.72
619.998	3135.36
620.203	2370.98
620.408	1443.86
620.614	539.03
