Data from test1_MAYP1115451__29__10-17-18-885.txt Node

Date: Wed Jun 12 10:17:18 MDT 2024
User: Modes Lab
Spectrometer: MAYP111545
Trigger mode: 0
Integration Time (sec): 8.000000E-3
Scans to average: 5
Electric dark correction enabled: true
Nonlinearity correction enabled: false
Boxcar width: 5
XAxis mode: Wavelengths
Number of Pixels in Spectrum: 2068
>>>>>Begin Spectral Data<<<<<
165.214	164.1
165.449	164.66
165.683	173.68
165.918	182.01
166.152	188.13
166.387	193.85
166.621	125.76
166.856	163.89
167.09	182.6
167.325	206.62
167.559	222.96
167.794	237.09
168.028	244.54
168.263	245.72
168.497	246.69
168.732	248.23
168.966	247.65
169.2	249
169.435	249.98
169.669	251.54
169.903	252.72
170.138	253.98
170.372	254.94
170.606	256.8
170.841	258.83
171.075	259.83
171.309	260.63
171.544	262.89
171.778	265.12
172.012	267.36
172.246	269.12
172.48	270.27
172.715	272.36
172.949	275.05
173.183	276.4
173.417	277.83
173.651	279.07
173.885	281.03
174.119	281.09
174.354	282.14
174.588	282.25
174.822	282.92
175.056	283.34
175.29	284.02
175.524	283.52
175.758	284.12
175.992	283.96
176.226	284.16
176.46	283.96
176.694	285.69
176.928	285.74
177.162	286.42
177.396	286.94
177.63	288.05
177.864	288.51
178.097	289.12
178.331	289.25
178.565	290.36
178.799	291.89
179.033	292.34
179.267	293.36
179.5	294.45
179.734	295.27
179.968	296.42
180.202	297.18
180.436	298.71
180.669	299.25
180.903	300.65
181.137	301.63
181.371	302.11
181.604	303.22
181.838	303.56
182.072	304.25
182.305	305.65
182.539	306.18
182.772	307.18
183.006	307.82
183.24	309
183.473	311.16
183.707	311.98
183.94	313.05
184.174	313.94
184.408	315.02
184.641	315.94
184.875	316.85
185.108	318.11
185.342	319.03
185.575	320.8
185.808	322.56
186.042	322.32
186.275	323.49
186.509	324.65
186.742	326.6
186.976	328.49
187.209	329.89
187.442	331.47
187.676	331.92
187.909	333.51
188.142	333.56
188.376	334.38
188.609	336.4
188.842	337.74
189.076	340
189.309	341.65
189.542	342.67
189.775	344.87
190.009	346.83
190.242	350.03
190.475	352.89
190.708	356.12
190.941	358.87
191.174	360.02
191.408	360.43
191.641	360.69
191.874	362.62
192.107	365.65
192.34	366.4
192.573	368.49
192.806	369.32
193.039	370.12
193.272	371.34
193.505	372.07
193.738	373.38
193.971	376.8
194.204	379.65
194.437	380.87
194.67	381.6
194.903	384.03
195.136	384.98
195.369	387.71
195.602	388.8
195.835	390.6
196.068	393.42
196.301	396.23
196.533	399.42
196.766	400.87
196.999	402.83
197.232	404.67
197.465	405.38
197.698	407.29
197.93	408.72
198.163	411.91
198.396	414.42
198.629	416.14
198.861	417.52
199.094	417
199.327	420.29
199.559	422.43
199.792	424.58
200.025	427.51
200.257	431.31
200.49	434.02
200.723	436.56
200.955	437.45
201.188	440.34
201.42	443.42
201.653	447.03
201.886	449.16
202.118	452.45
202.351	455.2
202.583	458.98
202.816	459.58
203.048	462.12
203.281	463.72
203.513	466.65
203.745	468.63
203.978	470.23
204.21	471.22
204.443	473
204.675	473.74
204.907	474.36
205.14	475.94
205.372	479.18
205.605	480.71
205.837	482.52
206.069	484.31
206.302	486.18
206.534	487.82
206.766	490.89
206.998	492.51
207.231	495.52
207.463	499.82
207.695	502.34
207.927	504.07
208.159	505.47
208.392	508.03
208.624	510.65
208.856	511.6
209.088	514
209.32	515.74
209.552	517.98
209.784	520.47
210.017	522.8
210.249	525.05
210.481	527.71
210.713	529.36
210.945	531.18
211.177	533.23
211.409	536.87
211.641	538.94
211.873	541.82
212.105	542.91
212.337	543.58
212.569	544.72
212.801	545.22
213.033	547.11
213.264	549.62
213.496	550.94
213.728	553.76
213.96	553.94
214.192	556.09
214.424	556.42
214.656	558.09
214.887	561.82
215.119	564.71
215.351	566.51
215.583	566.62
215.815	569.34
216.046	571.76
216.278	571.74
216.51	574
216.741	575.43
216.973	578.67
217.205	580.62
217.436	580.91
217.668	581.58
217.9	583.03
218.131	585.56
218.363	587.54
218.595	589.38
218.826	591.4
219.058	593.23
219.289	595.14
219.521	595.14
219.752	596.4
219.984	597.89
220.215	598.22
220.447	598.72
220.678	599.74
220.91	599.6
221.141	599.52
221.373	600.62
221.604	601
221.836	600.71
222.067	602.29
222.298	603.8
222.53	604.58
222.761	606.67
222.993	608.87
223.224	610.94
223.455	611.52
223.686	612.43
223.918	612.31
224.149	614.02
224.38	615.67
224.612	616
224.843	616.69
225.074	617.36
225.305	617.67
225.536	617.29
225.768	617.29
225.999	617.67
226.23	618.42
226.461	619.6
226.692	618.91
226.923	619.71
227.155	621.6
227.386	622.09
227.617	622.03
227.848	622.23
228.079	624.94
228.31	625.43
228.541	626.18
228.772	627.58
229.003	628.82
229.234	630.85
229.465	630.12
229.696	629.11
229.927	628.83
230.158	628.27
230.389	627.34
230.62	625.83
230.85	625.52
231.081	624.02
231.312	621.67
231.543	621.12
231.774	620.69
232.005	621.54
232.236	622.2
232.466	622.03
232.697	622.94
232.928	623.23
233.159	623.49
233.389	623.05
233.62	623.71
233.851	625.54
234.082	625
234.312	623.92
234.543	622.89
234.774	621.47
235.004	622.29
235.235	621.87
235.466	622.8
235.696	623.14
235.927	623.31
236.157	623.82
236.388	623.18
236.618	622.47
236.849	622.72
237.08	622.62
237.31	623.02
237.541	622.74
237.771	621.51
238.002	621.49
238.232	619.58
238.463	618.4
238.693	618.42
238.923	617.4
239.154	617.51
239.384	617.02
239.615	616.89
239.845	616.22
240.075	615.25
240.306	615.2
240.536	614.6
240.766	614.43
240.997	614.78
241.227	613.31
241.457	612.89
241.687	612.67
241.918	612.34
242.148	613.18
242.378	613.49
242.608	611.85
242.839	612.78
243.069	612.18
243.299	612.32
243.529	613.45
243.759	613.91
243.989	613.29
244.22	612.63
244.45	611.92
244.68	611.58
244.91	611.47
245.14	612.87
245.37	610.63
245.6	610.09
245.83	609.65
246.06	608.18
246.29	607.2
246.52	607.29
246.75	605.89
246.98	606.38
247.21	604.6
247.44	602.27
247.67	599.98
247.9	600.14
248.13	599.02
248.359	598.31
248.589	596.4
248.819	596.16
249.049	594.31
249.279	595.91
249.509	595.14
249.738	594.38
249.968	594.62
250.198	595.96
250.428	596.16
250.657	594.98
250.887	594.89
251.117	596.02
251.347	595.65
251.576	596.8
251.806	595.72
252.036	594.07
252.265	593.36
252.495	593.67
252.725	592.16
252.954	591.16
253.184	591.54
253.413	590.82
253.643	588.85
253.873	587.54
254.102	587.51
254.332	586.14
254.561	585.98
254.791	584.83
255.02	583.94
255.25	582.89
255.479	582.65
255.708	581.65
255.938	580.76
256.167	580.31
256.397	579.51
256.626	577.82
256.856	576.87
257.085	576.67
257.314	577.31
257.544	576.76
257.773	576.12
258.002	575.02
258.232	573.94
258.461	572.91
258.69	571.87
258.919	571.22
259.149	570.98
259.378	570.94
259.607	569.65
259.836	569.27
260.065	567.91
260.295	566.72
260.524	566.23
260.753	566.98
260.982	566.4
261.211	566.58
261.44	566.52
261.669	566.23
261.899	565.23
262.128	564.65
262.357	562.58
262.586	562.62
262.815	562.76
263.044	562.34
263.273	562.58
263.502	562.4
263.731	560.25
263.96	559.2
264.189	557.94
264.418	556.74
264.646	555.92
264.875	555.23
265.104	554.25
265.333	553.09
265.562	550.67
265.791	548.83
266.02	547.65
266.249	546.63
266.477	545.89
266.706	544.34
266.935	544.03
267.164	543.14
267.393	543
267.621	542.6
267.85	542.71
268.079	544.69
268.307	543.4
268.536	542.05
268.765	543.14
268.993	542.67
269.222	542.23
269.451	542.89
269.679	543.36
269.908	542.89
270.137	543.02
270.365	541.69
270.594	540.58
270.822	540.58
271.051	542.56
271.279	541.65
271.508	542.49
271.736	543.65
271.965	543.45
272.193	543.45
272.422	544.76
272.65	543.58
272.879	543.31
273.107	541.8
273.336	541.42
273.564	540
273.792	538.47
274.021	536.98
274.249	534.27
274.477	532.96
274.706	531.96
274.934	528.85
275.162	527.4
275.391	526.6
275.619	526.45
275.847	525.91
276.075	524.54
276.304	525.07
276.532	523.63
276.76	523.54
276.988	522.14
277.216	520.8
277.445	521.22
277.673	520.8
277.901	521.67
278.129	520.87
278.357	520.12
278.585	520.2
278.813	519.18
279.041	519.09
279.269	518.29
279.497	517.51
279.725	517.05
279.954	515.38
280.182	515.49
280.41	514.31
280.637	513.29
280.865	512.43
281.093	511.03
281.321	511.03
281.549	510.52
281.777	511.85
282.005	511.58
282.233	511.23
282.461	511.43
282.689	509.85
282.916	510.05
283.144	509.67
283.372	508.92
283.6	508.09
283.828	506.47
284.055	506.03
284.283	504.67
284.511	504.05
284.739	504.49
284.966	504.03
285.194	504.56
285.422	502.52
285.649	502.23
285.877	502
286.105	501.51
286.332	502.67
286.56	502.69
286.788	501.12
287.015	500.56
287.243	498.82
287.47	497.98
287.698	496.72
287.925	496.96
288.153	497.65
288.381	497.27
288.608	496.6
288.836	495.45
289.063	494.07
289.29	494
289.518	493.38
289.745	492.16
289.973	491.85
290.2	491.8
290.428	490.45
290.655	488.85
290.882	488.36
291.11	488.45
291.337	486.87
291.564	486.87
291.792	486.29
292.019	485.05
292.246	485.87
292.473	485.71
292.701	484.83
292.928	484.83
293.155	484.58
293.382	483.47
293.61	482.74
293.837	483.16
294.064	481.92
294.291	481.29
294.518	482.03
294.745	480.31
294.972	479.6
295.2	480.18
295.427	480.36
295.654	479.29
295.881	479.52
296.108	479
296.335	478.49
296.562	478.45
296.789	478.12
297.016	478.47
297.243	478.69
297.47	477.62
297.697	476.36
297.924	475.47
298.151	474.69
298.378	474.25
298.604	473.6
298.831	472.76
299.058	472.56
299.285	473.6
299.512	471.51
299.739	471.38
299.966	471.56
300.192	471.56
300.419	471.29
300.646	471.38
300.873	469.4
301.099	469.56
301.326	469.4
301.553	469.14
301.78	468.96
302.006	469.6
302.233	469.09
302.46	468.49
302.686	467.42
302.913	466.32
303.14	465.67
303.366	466.38
303.593	466.56
303.819	465.25
304.046	463.16
304.272	461.83
304.499	461.4
304.725	460.58
304.952	459.85
305.179	459.63
305.405	459.63
305.631	459
305.858	458
306.084	456.03
306.311	457.54
306.537	458.74
306.764	457.65
306.99	456.16
307.216	455.76
307.443	455.71
307.669	454.49
307.895	454.62
308.122	454.54
308.348	454.27
308.574	454.94
308.801	454.94
309.027	454.85
309.253	454.36
309.479	455.23
309.706	454.58
309.932	454.96
310.158	454.69
310.384	453.49
310.61	453.98
310.837	453.36
311.063	452.2
311.289	450.92
311.515	450.2
311.741	450.49
311.967	449.09
312.193	450.42
312.419	450.36
312.645	450.94
312.871	451.49
313.097	451.63
313.323	452.45
313.549	454.09
313.775	454.43
314.001	455.54
314.227	455.52
314.453	456.4
314.679	456.49
314.905	457.22
315.131	457.72
315.357	458.6
315.583	458.03
315.809	457.94
316.034	456.76
316.26	456.6
316.486	456.51
316.712	457.69
316.938	457.82
317.163	457.8
317.389	456.4
317.615	456.63
317.841	456.92
318.066	457.42
318.292	457.92
318.518	459.27
318.743	459.43
318.969	460
319.195	461
319.42	462.8
319.646	463.65
319.872	465.18
320.097	466.29
320.323	465.78
320.548	467.25
320.774	469.2
320.999	469.72
321.225	471.16
321.45	472.6
321.676	473.02
321.901	473.42
322.127	474.63
322.352	475.65
322.578	477.16
322.803	481.14
323.029	482.36
323.254	483.25
323.479	486.89
323.705	487.87
323.93	488.65
324.155	490.56
324.381	493.52
324.606	494.29
324.831	497.74
325.057	498.58
325.282	499.58
325.507	502.2
325.732	504.91
325.958	505.83
326.183	509.87
326.408	514.45
326.633	516.82
326.858	518.51
327.084	522.87
327.309	524.76
327.534	529.43
327.759	532.36
327.984	534.43
328.209	535.85
328.434	539.42
328.659	542
328.884	542.94
329.109	545.29
329.334	547.51
329.559	549.82
329.784	553
330.009	554.87
330.234	557.16
330.459	560.89
330.684	565.8
330.909	568.52
331.134	571.82
331.359	576.45
331.584	581.54
331.809	585.22
332.034	589.09
332.259	592.85
332.483	597.91
332.708	602.49
332.933	607.38
333.158	611.43
333.383	616.51
333.607	621.82
333.832	626.27
334.057	629.45
334.282	635.34
334.506	640.58
334.731	646.32
334.956	652.56
335.18	658.14
335.405	663.32
335.63	669.14
335.854	673.76
336.079	680.51
336.303	686.27
336.528	694.36
336.753	700.12
336.977	706.82
337.202	712.65
337.426	718.25
337.651	724.91
337.875	730.83
338.1	737.14
338.324	744.56
338.549	749.4
338.773	755.82
338.997	762.09
339.222	770.03
339.446	777.25
339.671	783.8
339.895	791.52
340.119	798.07
340.344	806.14
340.568	815.23
340.792	822.85
341.017	830.69
341.241	839.71
341.465	846.47
341.689	854.25
341.914	860.96
342.138	868.42
342.362	876.16
342.586	884.98
342.811	892.76
343.035	898.4
343.259	905.62
343.483	914.76
343.707	923.14
343.931	934.63
344.155	942.92
344.38	953.34
344.604	963.92
344.828	972.71
345.052	981.89
345.276	992.11
345.5	1003
345.724	1014.51
345.948	1024.49
346.172	1033.65
346.396	1041.83
346.62	1052.65
346.844	1062.67
347.068	1072.76
347.292	1081.45
347.515	1090.2
347.739	1101.18
347.963	1110.94
348.187	1121.67
348.411	1131.29
348.635	1141.47
348.859	1151.03
349.082	1160.83
349.306	1169
349.53	1179.31
349.754	1192.4
349.977	1204.58
350.201	1215.6
350.425	1228.02
350.649	1237
350.872	1249.32
351.096	1260.8
351.32	1271.94
351.543	1283.91
351.767	1295.89
351.99	1307.8
352.214	1319
352.438	1330.76
352.661	1341.22
352.885	1351.38
353.108	1362.31
353.332	1372.38
353.555	1384.45
353.779	1395.85
354.002	1407.62
354.226	1420.83
354.449	1432.22
354.673	1443.94
354.896	1455.02
355.12	1466.89
355.343	1478.98
355.566	1492.05
355.79	1504.87
356.013	1514.52
356.237	1527.36
356.46	1539.91
356.683	1552.83
356.907	1564.89
357.13	1576.67
357.353	1588.98
357.576	1600.67
357.8	1614.03
358.023	1626.67
358.246	1640.12
358.469	1655.14
358.693	1667.14
358.916	1679.6
359.139	1692
359.362	1706.27
359.585	1718.07
359.808	1732.18
360.031	1744.85
360.255	1757.83
360.478	1770.38
360.701	1781.54
360.924	1793.67
361.147	1808.05
361.37	1820.82
361.593	1834.67
361.816	1846.67
362.039	1861.51
362.262	1874.89
362.485	1887.18
362.708	1900.29
362.931	1913.38
363.154	1927.74
363.377	1941.49
363.599	1956.54
363.822	1970.69
364.045	1983.98
364.268	1995.76
364.491	2009.42
364.714	2021.91
364.936	2035.83
365.159	2049.98
365.382	2064.25
365.605	2078.09
365.828	2095.32
366.05	2108.34
366.273	2123.16
366.496	2135.45
366.718	2152.85
366.941	2166.83
367.164	2183.52
367.386	2201.6
367.609	2217.12
367.832	2235.02
368.054	2251.62
368.277	2267.07
368.5	2283.18
368.722	2300.29
368.945	2318.6
369.167	2333.67
369.39	2347.71
369.612	2363.76
369.835	2379.62
370.057	2396.36
370.28	2411.07
370.502	2427.25
370.725	2443.58
370.947	2459.18
371.169	2474.49
371.392	2491.47
371.614	2508.56
371.837	2529.18
372.059	2547.36
372.281	2565.52
372.504	2582.71
372.726	2599.43
372.948	2618.38
373.171	2633.74
373.393	2652.58
373.615	2671.83
373.837	2689.45
374.06	2709.67
374.282	2727.91
374.504	2746.65
374.726	2763.72
374.948	2780.67
375.17	2799.62
375.393	2817.34
375.615	2837.34
375.837	2856.49
376.059	2874.6
376.281	2893.05
376.503	2907.63
376.725	2927.09
376.947	2946.32
377.169	2964.42
377.391	2985.52
377.613	3006.22
377.835	3025.2
378.057	3042.63
378.279	3062.47
378.501	3082.31
378.723	3104.98
378.945	3130.45
379.167	3150.62
379.389	3171.14
379.611	3195.52
379.833	3219.12
380.054	3244.38
380.276	3270.02
380.498	3295.31
380.72	3319.69
380.942	3340.56
381.163	3364.49
381.385	3388.85
381.607	3413.43
381.829	3437.92
382.05	3462.18
382.272	3486.14
382.494	3510.38
382.716	3534.8
382.937	3560.49
383.159	3585.29
383.381	3616.54
383.602	3642.51
383.824	3668.52
384.045	3693.6
384.267	3718.23
384.488	3744.56
384.71	3770.92
384.932	3794.23
385.153	3822.02
385.375	3850.42
385.596	3876.47
385.818	3903.56
386.039	3929.02
386.261	3955.47
386.482	3982.23
386.703	4012.6
386.925	4038.58
387.146	4064.12
387.368	4094.45
387.589	4121.65
387.81	4147.02
388.032	4176.11
388.253	4202.05
388.474	4230.56
388.696	4257.49
388.917	4286.31
389.138	4313.83
389.359	4345.92
389.581	4377.16
389.802	4407.65
390.023	4435.71
390.244	4466.94
390.465	4496.65
390.687	4526.62
390.908	4555.2
391.129	4585.8
391.35	4615.27
391.571	4643.09
391.792	4672.56
392.013	4706.18
392.234	4736.47
392.455	4768.52
392.677	4799.09
392.898	4831.43
393.119	4861.34
393.34	4894.78
393.561	4928.51
393.782	4966.78
394.003	5002.42
394.223	5036.07
394.444	5064.82
394.665	5098.89
394.886	5131.71
395.107	5165.27
395.328	5197.45
395.549	5232.05
395.77	5264.54
395.99	5294.62
396.211	5324.56
396.432	5357.87
396.653	5391.94
396.874	5423.85
397.094	5456.25
397.315	5487.91
397.536	5520.43
397.757	5555.98
397.977	5590.18
398.198	5625.71
398.419	5660.74
398.639	5693.18
398.86	5726.6
399.081	5758.38
399.301	5793.74
399.522	5822.07
399.742	5854.43
399.963	5889.72
400.184	5922.07
400.404	5954.16
400.625	5986.54
400.845	6020.56
401.066	6058.54
401.286	6089.2
401.507	6124.27
401.727	6155.8
401.948	6192.07
402.168	6227.22
402.388	6261.4
402.609	6292.51
402.829	6328.62
403.05	6364.25
403.27	6399.92
403.49	6431.4
403.711	6465.09
403.931	6498.92
404.151	6533.54
404.372	6572.52
404.592	6601.27
404.812	6633.09
405.032	6670.27
405.253	6700.29
405.473	6736.22
405.693	6772.23
405.913	6806.2
406.133	6845.05
406.353	6884.89
406.574	6921.03
406.794	6952.27
407.014	6994.4
407.234	7029.76
407.454	7067
407.674	7111
407.894	7145.82
408.114	7179.25
408.334	7213.38
408.554	7250.18
408.774	7282.74
408.994	7320.87
409.214	7358.03
409.434	7394.52
409.654	7431.47
409.874	7469.51
410.094	7503.47
410.314	7538.49
410.534	7575.07
410.754	7615.03
410.974	7654.91
411.193	7689.03
411.413	7726.6
411.633	7769.82
411.853	7807.85
412.073	7844.89
412.292	7878.8
412.512	7916.89
412.732	7956.72
412.952	7997.16
413.171	8038.03
413.391	8074.45
413.611	8118.6
413.831	8161.32
414.05	8196.12
414.27	8239.65
414.489	8282.94
414.709	8325.74
414.929	8370.96
415.148	8410.45
415.368	8453.34
415.587	8495.71
415.807	8542.45
416.026	8587.36
416.246	8628.67
416.465	8675.32
416.685	8718.25
416.904	8766.45
417.124	8809.23
417.343	8847.98
417.563	8900.25
417.782	8944.14
418.002	8994.85
418.221	9037.63
418.44	9079.65
418.66	9123.25
418.879	9166.56
419.098	9209.25
419.318	9250.83
419.537	9299.03
419.756	9344.43
419.976	9384.6
420.195	9429.71
420.414	9467.69
420.633	9504.54
420.853	9544.31
421.072	9594.18
421.291	9635.71
421.51	9678.51
421.729	9722.11
421.948	9767.82
422.168	9813.29
422.387	9855.54
422.606	9898.27
422.825	9938.76
423.044	9993.2
423.263	10039
423.482	10079.98
423.701	10124.16
423.92	10170.2
424.139	10217.29
424.358	10256
424.577	10300.12
424.796	10347.36
425.015	10398.34
425.234	10447.94
425.453	10487.49
425.672	10536.54
425.891	10584.16
426.11	10630.45
426.328	10676.32
426.547	10718.36
426.766	10767.38
426.985	10816.16
427.204	10862.14
427.422	10904
427.641	10944.91
427.86	10995.18
428.079	11036.4
428.297	11076.78
428.516	11133.38
428.735	11184.03
428.954	11237.36
429.172	11282.32
429.391	11328.92
429.61	11373.89
429.828	11420.71
430.047	11472.63
430.265	11515.89
430.484	11568.82
430.703	11619.49
430.921	11658.18
431.14	11701.6
431.358	11747.89
431.577	11795.72
431.795	11843.32
432.014	11894.52
432.232	11944.98
432.451	11994.56
432.669	12044.87
432.887	12093.29
433.106	12142.89
433.324	12192.38
433.543	12239.63
433.761	12286.85
433.979	12336.89
434.198	12384.92
434.416	12435.87
434.634	12479.36
434.853	12526.4
435.071	12575.34
435.289	12625.67
435.507	12669.62
435.726	12715.62
435.944	12764.91
436.162	12811.27
436.38	12856.83
436.598	12899.94
436.817	12933.34
437.035	12984.98
437.253	13034.49
437.471	13080.31
437.689	13123.29
437.907	13175.98
438.125	13226.4
438.343	13274.92
438.561	13325.12
438.78	13372.2
438.998	13425.76
439.216	13483.14
439.434	13525.69
439.652	13571.12
439.869	13616.38
440.087	13661.76
440.305	13706.09
440.523	13755.23
440.741	13796.89
440.959	13840.69
441.177	13896.32
441.395	13939.72
441.613	13986.51
441.831	14033.69
442.048	14079.62
442.266	14129.62
442.484	14177.05
442.702	14226.89
442.919	14272.49
443.137	14325.22
443.355	14373.54
443.573	14419.36
443.79	14466.07
444.008	14516.42
444.226	14568.71
444.443	14618.45
444.661	14666.72
444.879	14714.2
445.096	14758
445.314	14810.14
445.532	14859.27
445.749	14904.96
445.967	14945.89
446.184	14997.69
446.402	15042.62
446.619	15086.87
446.837	15134.65
447.054	15177.52
447.272	15230.4
447.489	15281
447.707	15322.02
447.924	15364.16
448.141	15419.91
448.359	15474.16
448.576	15524.49
448.794	15574.14
449.011	15626.2
449.228	15669.22
449.446	15717.72
449.663	15767.6
449.88	15821.91
450.098	15868.14
450.315	15921.03
450.532	15962.4
450.749	16010.91
450.967	16058.92
451.184	16108.03
451.401	16152.6
451.618	16202.05
451.835	16255.71
452.052	16299.76
452.27	16338.29
452.487	16389.72
452.704	16432.47
452.921	16481.63
453.138	16529.43
453.355	16570.22
453.572	16617.05
453.789	16664.07
454.006	16709.65
454.223	16758.22
454.44	16807.6
454.657	16856.45
454.874	16901.49
455.091	16952.89
455.308	16997.74
455.525	17047.94
455.742	17099.47
455.959	17146.05
456.176	17195.72
456.393	17246.65
456.609	17294.36
456.826	17342.29
457.043	17388.62
457.26	17439.42
457.477	17484.78
457.693	17526.09
457.91	17568.11
458.127	17609.09
458.344	17655.87
458.56	17696.49
458.777	17733.92
458.994	17771.47
459.21	17798.92
459.427	17833.54
459.644	17865.05
459.86	17895.6
460.077	17935.47
460.294	17969.67
460.51	18007.45
460.727	18043.71
460.943	18080.51
461.16	18120.71
461.376	18155.23
461.593	18202.31
461.809	18245.65
462.026	18283.58
462.242	18323.87
462.459	18361.83
462.675	18394.74
462.892	18430.52
463.108	18460.34
463.324	18498.87
463.541	18542.91
463.757	18589.69
463.974	18630.07
464.19	18678.56
464.406	18724.51
464.623	18777.45
464.839	18832.45
465.055	18889.92
465.271	18941.83
465.488	18990.27
465.704	19034.96
465.92	19077.29
466.136	19118.89
466.353	19171.65
466.569	19216.45
466.785	19270.67
467.001	19316.8
467.217	19364.92
467.433	19413.78
467.649	19468.14
467.865	19532.62
468.082	19597.07
468.298	19661.85
468.514	19729.05
468.73	19788.29
468.946	19854.18
469.162	19917.76
469.378	19992.49
469.594	20054.71
469.81	20114.38
470.026	20178
470.242	20239.83
470.457	20301.94
470.673	20369.03
470.889	20437.92
471.105	20511.6
471.321	20579.56
471.537	20644.12
471.753	20708.54
471.968	20780.45
472.184	20858.32
472.4	20931.96
472.616	21013.02
472.832	21090.6
473.047	21159.94
473.263	21224.78
473.479	21289.12
473.694	21357.14
473.91	21431.89
474.126	21504.76
474.341	21583.34
474.557	21655.27
474.773	21721.63
474.988	21778.82
475.204	21849.16
475.42	21929.56
475.635	22004.85
475.851	22074.32
476.066	22155.47
476.282	22217.91
476.497	22283.92
476.713	22355.29
476.928	22422.96
477.144	22498.11
477.359	22569.92
477.575	22630.98
477.79	22682.25
478.005	22743.89
478.221	22804.42
478.436	22856.32
478.651	22923.82
478.867	22986.91
479.082	23037.85
479.297	23094.91
479.513	23146.65
479.728	23197.91
479.943	23249.45
480.159	23309.07
480.374	23360.89
480.589	23418.78
480.804	23468.05
481.019	23524.03
481.235	23571.92
481.45	23618.03
481.665	23664.29
481.88	23714.83
482.095	23771.09
482.31	23832.94
482.525	23880.4
482.741	23927.12
482.956	23975.51
483.171	24027.76
483.386	24068.32
483.601	24112.4
483.816	24157.45
484.031	24201.02
484.246	24246.18
484.461	24287.94
484.676	24324.62
484.891	24365.49
485.105	24410.4
485.32	24457.76
485.535	24495.74
485.75	24542.85
485.965	24584.94
486.18	24627
486.395	24671.4
486.609	24713.34
486.824	24755.58
487.039	24798.51
487.254	24844.8
487.469	24883.92
487.683	24919.91
487.898	24962.43
488.113	24999.78
488.327	25039.36
488.542	25071.09
488.757	25114
488.972	25153.14
489.186	25185.98
489.401	25221.78
489.615	25246.09
489.83	25285.29
490.045	25315.49
490.259	25347.83
490.474	25381.94
490.688	25413.47
490.903	25447.2
491.117	25472.25
491.332	25498.52
491.546	25536.49
491.761	25567.14
491.975	25608.72
492.19	25637.78
492.404	25678.22
492.618	25716.87
492.833	25744.18
493.047	25772.45
493.262	25819.38
493.476	25849.92
493.69	25877.58
493.905	25906.91
494.119	25942.91
494.333	25972.87
494.547	26005.54
494.762	26026.23
494.976	26049.63
495.19	26079.74
495.404	26112.58
495.619	26128.34
495.833	26155.89
496.047	26184.36
496.261	26194.47
496.475	26202.89
496.689	26212.14
496.903	26214.89
497.117	26217.14
497.332	26210.91
497.546	26207
497.76	26197.03
497.974	26186.69
498.188	26180.52
498.402	26167.83
498.616	26155.29
498.83	26145.74
499.044	26137.76
499.258	26135.38
499.472	26140.89
499.685	26151.38
499.899	26150.6
500.113	26157.03
500.327	26166.05
500.541	26170
500.755	26187.16
500.969	26216.4
501.183	26236.23
501.396	26259.31
501.61	26279.87
501.824	26301.49
502.038	26319.58
502.251	26340
502.465	26368.74
502.679	26389.42
502.892	26408.51
503.106	26423.05
503.32	26427.62
503.533	26445.45
503.747	26456.78
503.961	26476.56
504.174	26498
504.388	26525.34
504.602	26557.31
504.815	26578.91
505.029	26618
505.242	26653.76
505.456	26692.58
505.669	26748.94
505.883	26793.23
506.096	26850.43
506.31	26911.43
506.523	26958.16
506.736	27000.23
506.95	27059.71
507.163	27106.51
507.377	27159.25
507.59	27225.02
507.803	27280.32
508.017	27340.62
508.23	27409.96
508.443	27478.07
508.657	27533.18
508.87	27591.67
509.083	27664.82
509.296	27732.03
509.51	27815.2
509.723	27894.91
509.936	27969.76
510.149	28060.42
510.363	28146.8
510.576	28230.89
510.789	28313.51
511.002	28409.43
511.215	28506.14
511.428	28602.2
511.641	28710.72
511.854	28816.09
512.067	28917.96
512.28	29028.54
512.493	29126.51
512.707	29225.29
512.92	29321.6
513.132	29423.32
513.345	29525.54
513.558	29636.36
513.771	29746.87
513.984	29837.82
514.197	29941.63
514.41	30039.51
514.623	30148.36
514.836	30263.47
515.049	30372.29
515.262	30480.85
515.474	30589.65
515.687	30696.4
515.9	30798.67
516.113	30903.42
516.325	31003.23
516.538	31092.87
516.751	31191.87
516.964	31269.2
517.176	31355.72
517.389	31440.49
517.602	31521.82
517.814	31605.94
518.027	31677.92
518.24	31764.82
518.452	31835.38
518.665	31914.45
518.877	31992.94
519.09	32061.22
519.303	32133.25
519.515	32199.74
519.728	32260.32
519.94	32336.98
520.153	32396.18
520.365	32461.47
520.578	32520.8
520.79	32582.8
521.002	32645.96
521.215	32702.16
521.427	32760.71
521.64	32815.51
521.852	32865.16
522.064	32923.78
522.277	32973.67
522.489	33028.38
522.701	33080.32
522.914	33127.11
523.126	33177.2
523.338	33233.74
523.551	33287.98
523.763	33345.91
523.975	33402.43
524.187	33455.92
524.399	33500.92
524.612	33546.6
524.824	33589.94
525.036	33638.27
525.248	33680.56
525.46	33713.78
525.672	33745.11
525.884	33772.03
526.096	33795.49
526.308	33828.67
526.521	33853.12
526.733	33883.76
526.945	33904.14
527.157	33931.87
527.369	33962.11
527.581	33993.83
527.793	34029.2
528.004	34056.54
528.216	34097.2
528.428	34129.94
528.64	34154.83
528.852	34192.58
529.064	34217.12
529.276	34257.98
529.488	34284.65
529.699	34311.8
529.911	34337.38
530.123	34357.31
530.335	34387.89
530.547	34414.85
530.758	34442.14
530.97	34474.22
531.182	34509.43
531.393	34550.25
531.605	34575.34
531.817	34606.58
532.029	34640.05
532.24	34670.87
532.452	34704.49
532.663	34735.16
532.875	34754.8
533.087	34780.45
533.298	34798.16
533.51	34809.31
533.721	34819.83
533.933	34833.65
534.144	34850.67
534.356	34869.05
534.567	34883.51
534.779	34898.63
534.99	34895.23
535.202	34925.98
535.413	34943.76
535.624	34967.49
535.836	34982.89
536.047	35002.92
536.259	35020.34
536.47	35039.05
536.681	35032.87
536.893	35046.16
537.104	35050.52
537.315	35073.34
537.526	35078.05
537.738	35091.02
537.949	35099.47
538.16	35123.52
538.371	35133.05
538.582	35151.51
538.794	35169.11
539.005	35204.89
539.216	35221.8
539.427	35248.18
539.638	35266.72
539.849	35273.56
540.06	35291.12
540.272	35306.14
540.483	35309.91
540.694	35328.2
540.905	35344.22
541.116	35359.2
541.327	35361.76
541.538	35369.85
541.749	35384.51
541.96	35387.22
542.17	35401.14
542.381	35406.69
542.592	35417.38
542.803	35433.14
543.014	35439.71
543.225	35442.8
543.436	35445.94
543.647	35448.76
543.857	35459.78
544.068	35466.38
544.279	35485.12
544.49	35490.11
544.701	35504.91
544.911	35507.2
545.122	35516.05
545.333	35529.12
545.543	35534.91
545.754	35536.74
545.965	35550.05
546.175	35568.42
546.386	35584.2
546.597	35589.22
546.807	35609.09
547.018	35609.18
547.229	35615.67
547.439	35616.14
547.65	35619.03
547.86	35626.76
548.071	35638.14
548.281	35640.72
548.492	35633.74
548.702	35630.54
548.913	35631.76
549.123	35625.69
549.333	35642.25
549.544	35656.54
549.754	35665.72
549.965	35681
550.175	35696.91
550.385	35704.31
550.596	35714.22
550.806	35725.05
551.016	35732.31
551.227	35742.6
551.437	35756.02
551.647	35748.92
551.857	35756.87
552.068	35769.16
552.278	35771.47
552.488	35771.82
552.698	35776.63
552.908	35786.12
553.119	35779.67
553.329	35782.8
553.539	35781.92
553.749	35784.87
553.959	35781.23
554.169	35764.58
554.379	35762.78
554.589	35756.49
554.799	35746.6
555.009	35747.74
555.219	35741.36
555.429	35752.45
555.639	35747.02
555.849	35746.43
556.059	35736.82
556.269	35741.4
556.479	35744.4
556.689	35743.67
556.899	35751.42
557.109	35762.85
557.319	35764.58
557.528	35765.16
557.738	35757.12
557.948	35761.36
558.158	35748.45
558.368	35745.51
558.577	35735.31
558.787	35733.12
558.997	35724.67
559.207	35700.2
559.416	35686.38
559.626	35673.32
559.836	35656.34
560.045	35644.58
560.255	35633.32
560.465	35638.67
560.674	35644.25
560.884	35651.89
561.093	35642.63
561.303	35630.42
561.512	35628.96
561.722	35616.52
561.932	35604.8
562.141	35612.42
562.351	35604.76
562.56	35596.38
562.769	35591.82
562.979	35574.67
563.188	35562.69
563.398	35565.72
563.607	35564.85
563.817	35563.43
564.026	35566.14
564.235	35559.91
564.445	35543.18
564.654	35536.83
564.863	35526.82
565.073	35512.78
565.282	35506.6
565.491	35490.69
565.7	35470.47
565.91	35447.62
566.119	35434.82
566.328	35414.87
566.537	35400.02
566.746	35386.56
566.956	35378.12
567.165	35371.58
567.374	35357.29
567.583	35339.42
567.792	35322.69
568.001	35305.12
568.21	35284.03
568.419	35254.34
568.628	35237.49
568.837	35215.58
569.046	35179.52
569.255	35138.83
569.464	35099.42
569.673	35069.38
569.882	35040.32
570.091	35019.02
570.3	34989.52
570.509	34969.82
570.718	34958.09
570.927	34933.54
571.135	34913.27
571.344	34907.65
571.553	34906
571.762	34898.11
571.971	34886.05
572.18	34871.98
572.388	34853.2
572.597	34840.2
572.806	34817.69
573.014	34794.98
573.223	34774.67
573.432	34747.23
573.641	34728.07
573.849	34699.16
574.058	34680.23
574.266	34658.45
574.475	34626.69
574.684	34616.92
574.892	34603.74
575.101	34590.07
575.309	34575.54
575.518	34554.8
575.726	34541.6
575.935	34521.18
576.143	34508.25
576.352	34483.25
576.56	34461.98
576.769	34452.63
576.977	34424.6
577.186	34401.92
577.394	34383.49
577.602	34352.05
577.811	34329.51
578.019	34311.6
578.228	34295.49
578.436	34277.69
578.644	34256.51
578.852	34227.22
579.061	34205.87
579.269	34173.96
579.477	34147.51
579.685	34122.76
579.894	34098.31
580.102	34069.11
580.31	34050.25
580.518	34017
580.726	33988.2
580.935	33966.42
581.143	33944.6
581.351	33914.22
581.559	33894.72
581.767	33877.22
581.975	33852.8
582.183	33833.72
582.391	33822.43
582.599	33796.36
582.807	33772.82
583.015	33743.38
583.223	33716.78
583.431	33703.11
583.639	33690.92
583.847	33665.52
584.055	33635.82
584.263	33606.05
584.471	33591.09
584.678	33563.69
584.886	33538.45
585.094	33514.27
585.302	33501.94
585.51	33478.02
585.718	33442.49
585.925	33415.36
586.133	33408.27
586.341	33388.94
586.549	33375.74
586.756	33346.2
586.964	33325.87
587.172	33294.98
587.379	33268.27
587.587	33236.91
587.795	33206.58
588.002	33184.34
588.21	33160.16
588.417	33112.56
588.625	33078.09
588.833	33036.18
589.04	33000.09
589.248	32968.38
589.455	32953.65
589.663	32926.31
589.87	32901.78
590.078	32883.71
590.285	32860.05
590.492	32826.29
590.7	32807.63
590.907	32780.96
591.115	32763.67
591.322	32742.63
591.529	32711.98
591.737	32669.76
591.944	32642.67
592.151	32613.6
592.359	32577.38
592.566	32542.72
592.773	32507.83
592.981	32481.18
593.188	32441.94
593.395	32408.47
593.602	32381.29
593.809	32353.89
594.017	32338.14
594.224	32314.14
594.431	32279.12
594.638	32241.51
594.845	32209.42
595.052	32183.16
595.259	32154.89
595.466	32131.72
595.673	32110.49
595.88	32089.22
596.088	32071.83
596.295	32030.43
596.502	32011.32
596.709	31979.74
596.915	31961.18
597.122	31944.47
597.329	31922.34
597.536	31888.16
597.743	31870.05
597.95	31836.98
598.157	31790.76
598.364	31741.82
598.571	31699.76
598.777	31641.03
598.984	31590.03
599.191	31533.36
599.398	31473.03
599.605	31415.25
599.811	31366.2
600.018	31298.31
600.225	31235.23
600.431	31196.31
600.638	31157.43
600.845	31121.67
601.052	31086.03
601.258	31054.47
601.465	31012.38
601.671	30957.18
601.878	30892.07
602.085	30803.83
602.291	30709.83
602.498	30585.51
602.704	30436.82
602.911	30270.6
603.117	30085.78
603.324	29881.2
603.53	29664.49
603.737	29438.49
603.943	29210.2
604.15	28956.98
604.356	28713.98
604.562	28461.87
604.769	28217.02
604.975	27953.42
605.181	27697.78
605.388	27438.92
605.594	27175.38
605.8	26914.25
606.007	26646.27
606.213	26375.91
606.419	26113.85
606.625	25845.32
606.832	25576.16
607.038	25307.96
607.244	25046.25
607.45	24777.22
607.656	24521.87
607.863	24259.54
608.069	23986.89
608.275	23728.22
608.481	23458.43
608.687	23190.18
608.893	22918.23
609.099	22649.16
609.305	22384.51
609.511	22112.42
609.717	21835.85
609.923	21542.98
610.129	21257.38
610.335	20968.03
610.541	20675.23
610.747	20383.31
610.953	20090.27
611.159	19790.85
611.365	19491.09
611.571	19187.42
611.776	18883.36
611.982	18573.31
612.188	18265.85
612.394	17959.85
612.6	17651.09
612.806	17338.74
613.011	17024.45
613.217	16713.58
613.423	16402.98
613.628	16096.18
613.834	15791.25
614.04	15493.74
614.246	15199.43
614.451	14914.91
614.657	14634.16
614.862	14368.92
615.068	14100.49
615.274	13847.43
615.479	13591.02
615.685	13340.82
615.89	13095.47
616.096	12852.69
616.301	12605.52
616.507	12370.71
616.712	12124.56
616.918	11878.71
617.123	11620.2
617.329	11368.76
617.534	11107.43
617.74	10843.38
617.945	10581.78
618.15	10302.58
618.356	9864.87
618.561	9074.76
618.766	8111.07
618.972	7123.92
619.177	6157.94
619.382	5222.69
619.588	4308.56
619.793	3761.33
619.998	3128.88
620.203	2365.08
620.408	1442.89
620.614	539.57
