Data from test1_MAYP1115451__49__10-17-25-412.txt Node

Date: Wed Jun 12 10:17:25 MDT 2024
User: Modes Lab
Spectrometer: MAYP111545
Trigger mode: 0
Integration Time (sec): 8.000000E-3
Scans to average: 5
Electric dark correction enabled: true
Nonlinearity correction enabled: false
Boxcar width: 5
XAxis mode: Wavelengths
Number of Pixels in Spectrum: 2068
>>>>>Begin Spectral Data<<<<<
165.214	165.2
165.449	165.14
165.683	174.57
165.918	183.56
166.152	189.64
166.387	194.2
166.621	127.09
166.856	165.45
167.09	184.51
167.325	207.47
167.559	224.13
167.794	237.93
168.028	245.4
168.263	246.11
168.497	245.69
168.732	247.29
168.966	248.04
169.2	247.76
169.435	249.27
169.669	250.38
169.903	252.44
170.138	253.65
170.372	254.47
170.606	255.78
170.841	257.38
171.075	258.73
171.309	259.87
171.544	262.11
171.778	264.56
172.012	266.51
172.246	268.27
172.48	270.29
172.715	272.45
172.949	275.4
173.183	278.13
173.417	279.31
173.651	280.45
173.885	281.04
174.119	281.96
174.354	282.95
174.588	283.04
174.822	282.67
175.056	282.6
175.29	282.42
175.524	281.09
175.758	279.73
175.992	280.38
176.226	281.56
176.46	282.85
176.694	283.87
176.928	283.93
177.162	285.05
177.396	286.53
177.63	287.27
177.864	288
178.097	290.04
178.331	291.93
178.565	292.64
178.799	292.71
179.033	292.05
179.267	291.93
179.5	292.67
179.734	293.02
179.968	294.05
180.202	294.55
180.436	296.09
180.669	296.78
180.903	297.82
181.137	298.64
181.371	300.05
181.604	301.27
181.838	302.58
182.072	303.98
182.305	305.25
182.539	306.07
182.772	307.75
183.006	308.56
183.24	309.13
183.473	311.49
183.707	313.45
183.94	314.25
184.174	315.53
184.408	316.73
184.641	318.24
184.875	319.16
185.108	319.93
185.342	320.71
185.575	322.27
185.808	324.2
186.042	323.85
186.275	323.6
186.509	324.78
186.742	327.11
186.976	328.67
187.209	329.89
187.442	331.53
187.676	332.89
187.909	334.75
188.142	335.53
188.376	336.69
188.609	337.65
188.842	340.58
189.076	341.91
189.309	344.13
189.542	345.51
189.775	346.51
190.009	348.96
190.242	352.15
190.475	353.67
190.708	355.31
190.941	357.27
191.174	359.6
191.408	360.44
191.641	362.07
191.874	363.31
192.107	365.73
192.34	367.73
192.573	368.55
192.806	368.73
193.039	370.2
193.272	371.22
193.505	373.07
193.738	374.65
193.971	377.85
194.204	380.04
194.437	380.73
194.67	382.38
194.903	384.05
195.136	385.71
195.369	387.38
195.602	388.91
195.835	392.09
196.068	393.64
196.301	395.2
196.533	397.11
196.766	398.65
196.999	400.16
197.232	402.33
197.465	404.4
197.698	407.15
197.93	409.75
198.163	411.65
198.396	413.78
198.629	416.07
198.861	418.64
199.094	419.71
199.327	422.15
199.559	423.71
199.792	425.38
200.025	427.13
200.257	428.45
200.49	431.27
200.723	434.96
200.955	437.09
201.188	438.55
201.42	441.29
201.653	443.33
201.886	446.87
202.118	450.47
202.351	452.15
202.583	455.45
202.816	458.78
203.048	459.85
203.281	461.4
203.513	462.49
203.745	465.31
203.978	466.64
204.21	468.64
204.443	468.84
204.675	470.69
204.907	473.55
205.14	475.07
205.372	477.27
205.605	479.91
205.837	482.09
206.069	485.25
206.302	487.67
206.534	489.89
206.766	491.15
206.998	493.96
207.231	497.15
207.463	499.18
207.695	502.76
207.927	504.04
208.159	506.27
208.392	506.96
208.624	508.84
208.856	510.82
209.088	513.87
209.32	516.6
209.552	519.44
209.784	520.98
210.017	522.31
210.249	523.05
210.481	525.31
210.713	526.73
210.945	530.13
211.177	530.96
211.409	533.07
211.641	535.07
211.873	537.75
212.105	537.64
212.337	539.73
212.569	542.75
212.801	545.91
213.033	547.82
213.264	550.24
213.496	551.09
213.728	554.15
213.96	556.18
214.192	557.02
214.424	559.38
214.656	563.24
214.887	566.09
215.119	567.71
215.351	568.05
215.583	570.56
215.815	573.67
216.046	575
216.278	576.6
216.51	577.25
216.741	579.13
216.973	579.33
217.205	580.6
217.436	580.51
217.668	582.67
217.9	584.65
218.131	585.05
218.363	585.62
218.595	587.76
218.826	588.89
219.058	591.33
219.289	592.53
219.521	593.4
219.752	595.56
219.984	596.24
220.215	596.47
220.447	596.13
220.678	597.91
220.91	598.91
221.141	600.98
221.373	601.65
221.604	602.25
221.836	603.95
222.067	605.93
222.298	605.18
222.53	606.4
222.761	607.8
222.993	609.98
223.224	610.44
223.455	610.91
223.686	610.73
223.918	611.84
224.149	612.35
224.38	612.62
224.612	613.71
224.843	613.84
225.074	615.45
225.305	615.42
225.536	615.67
225.768	616.58
225.999	617.85
226.23	619.24
226.461	619.89
226.692	621.71
226.923	621.89
227.155	623.4
227.386	625.82
227.617	625.56
227.848	625.24
228.079	626.89
228.31	626.78
228.541	625.98
228.772	626.27
229.003	625.53
229.234	624.85
229.465	624.93
229.696	623.04
229.927	621.67
230.158	621.93
230.389	622.38
230.62	621.53
230.85	621.27
231.081	621.8
231.312	620.85
231.543	621.4
231.774	619.73
232.005	619.89
232.236	619.73
232.466	619.47
232.697	619.49
232.928	619.89
233.159	619.78
233.389	620.75
233.62	620.36
233.851	621.05
234.082	621.53
234.312	622.11
234.543	621.16
234.774	622.22
235.004	623.31
235.235	623.65
235.466	623.78
235.696	623.31
235.927	621.73
236.157	622.02
236.388	621.38
236.618	620.18
236.849	620.96
237.08	621.56
237.31	621.56
237.541	620.67
237.771	619.09
238.002	618.78
238.232	617.96
238.463	617.98
238.693	618.13
238.923	618.25
239.154	619.27
239.384	618.93
239.615	619.18
239.845	617.4
240.075	616.96
240.306	617.02
240.536	616.33
240.766	617.35
240.997	616.84
241.227	616.13
241.457	615.75
241.687	613.73
241.918	613.51
242.148	612.15
242.378	613.11
242.608	613.71
242.839	613.47
243.069	612.56
243.299	611.93
243.529	612.85
243.759	612.75
243.989	612.35
244.22	613.09
244.45	612.29
244.68	612.13
244.91	611.87
245.14	610.73
245.37	610.8
245.6	610.87
245.83	610.73
246.06	609.56
246.29	609
246.52	608.16
246.75	607.91
246.98	607.16
247.21	606.31
247.44	605.16
247.67	603.69
247.9	602.6
248.13	602.04
248.359	600.36
248.589	599.44
248.819	597.87
249.049	598.4
249.279	598.09
249.509	597.53
249.738	597.49
249.968	596.65
250.198	596.89
250.428	596.58
250.657	595.38
250.887	594.96
251.117	595.73
251.347	595.18
251.576	593.69
251.806	592.29
252.036	593.2
252.265	592.44
252.495	592.07
252.725	591.33
252.954	591.8
253.184	590.95
253.413	590.42
253.643	589.29
253.873	587.8
254.102	586.36
254.332	586.8
254.561	584.69
254.791	584.02
255.02	583.84
255.25	583.49
255.479	581.56
255.708	582.62
255.938	581.35
256.167	579.8
256.397	578.96
256.626	578.51
256.856	577.31
257.085	577.05
257.314	576.47
257.544	576
257.773	575.47
258.002	575.38
258.232	574.56
258.461	574.6
258.69	573.58
258.919	574.18
259.149	573.53
259.378	572.87
259.607	572.02
259.836	572.09
260.065	570.65
260.295	569.64
260.524	568.2
260.753	567.42
260.982	566.05
261.211	566.07
261.44	565.49
261.669	566.44
261.899	564.73
262.128	562.55
262.357	561.58
262.586	561.31
262.815	561.44
263.044	560.8
263.273	562.56
263.502	563.18
263.731	561.36
263.96	560.82
264.189	559.24
264.418	559.89
264.646	560.71
264.875	559.44
265.104	558.62
265.333	557.53
265.562	556.53
265.791	551.8
266.02	550.18
266.249	549.91
266.477	547.82
266.706	546.02
266.935	545.04
267.164	544.31
267.393	542.58
267.621	542.82
267.85	542.05
268.079	541.16
268.307	540.18
268.536	539.33
268.765	539.18
268.993	540.18
269.222	539.89
269.451	539.18
269.679	538.29
269.908	538.02
270.137	536.29
270.365	535.76
270.594	537.73
270.822	538.89
271.051	539.8
271.279	541
271.508	539.78
271.736	541.58
271.965	542.04
272.193	543.31
272.422	545
272.65	544.89
272.879	544.11
273.107	542.87
273.336	542.15
273.564	541.36
273.792	539.8
274.021	540.07
274.249	536.67
274.477	536.2
274.706	534.2
274.934	532.25
275.162	530.49
275.391	528.87
275.619	527.16
275.847	527.07
276.075	525.49
276.304	523.78
276.532	522.09
276.76	523.09
276.988	521.69
277.216	520.91
277.445	521
277.673	520.67
277.901	521.69
278.129	520.93
278.357	519.96
278.585	518.89
278.813	518.33
279.041	518.02
279.269	516.75
279.497	516.22
279.725	515.13
279.954	513.51
280.182	513.49
280.41	512.65
280.637	512.29
280.865	511
281.093	510.8
281.321	510.87
281.549	510.62
281.777	511.25
282.005	510.18
282.233	510.93
282.461	510.78
282.689	510.71
282.916	511.15
283.144	511.4
283.372	510.95
283.6	510.75
283.828	509.84
284.055	508.58
284.283	506.36
284.511	506.16
284.739	504.42
284.966	503.65
285.194	502.35
285.422	501.35
285.649	500.78
285.877	499.87
286.105	499.62
286.332	499.02
286.56	500.07
286.788	500.91
287.015	500.84
287.243	500.91
287.47	500.6
287.698	498.87
287.925	497.85
288.153	497.33
288.381	498.25
288.608	497.98
288.836	498.16
289.063	495.65
289.29	494.15
289.518	494.11
289.745	493.07
289.973	492.6
290.2	493.35
290.428	492.85
290.655	491.35
290.882	490.02
291.11	488.64
291.337	488.29
291.564	488.67
291.792	487.75
292.019	486.55
292.246	485.87
292.473	485.62
292.701	485.29
292.928	482.87
293.155	482.44
293.382	482.33
293.61	481.53
293.837	479.69
294.064	479.4
294.291	478.82
294.518	477.44
294.745	476.44
294.972	474.67
295.2	473.71
295.427	474.75
295.654	474.25
295.881	473.27
296.108	473.93
296.335	474.51
296.562	473.69
296.789	473.69
297.016	474.18
297.243	474.4
297.47	475
297.697	474.84
297.924	474.8
298.151	473.98
298.378	474.29
298.604	473.65
298.831	471.75
299.058	472.51
299.285	471.71
299.512	470.65
299.739	470.73
299.966	469.69
300.192	469.65
300.419	469.36
300.646	469.2
300.873	468.31
301.099	467.16
301.326	466.71
301.553	465
301.78	465.53
302.006	465.56
302.233	465.22
302.46	466.07
302.686	464.71
302.913	464.09
303.14	463.15
303.366	462.76
303.593	461.98
303.819	463.02
304.046	462.56
304.272	461.44
304.499	461.09
304.725	461.24
304.952	460.42
305.179	460.24
305.405	459.76
305.631	460.29
305.858	460.38
306.084	460.93
306.311	460.38
306.537	460.49
306.764	461.05
306.99	461.2
307.216	460.51
307.443	460.24
307.669	460.64
307.895	460.05
308.122	459.51
308.348	458.55
308.574	457.38
308.801	457.51
309.027	456.93
309.253	456.38
309.479	454.95
309.706	454.42
309.932	452.8
310.158	452.73
310.384	452.75
310.61	453.35
310.837	452.44
311.063	453.56
311.289	452.47
311.515	453.04
311.741	453.04
311.967	453.42
312.193	452.58
312.419	453.73
312.645	453.75
312.871	453.05
313.097	452.78
313.323	454.31
313.549	454.45
313.775	455.49
314.001	455.02
314.227	455.55
314.453	455.56
314.679	456.31
314.905	456.13
315.131	455.85
315.357	457.11
315.583	456.51
315.809	455.95
316.034	455.29
316.26	454.73
316.486	455.45
316.712	455.35
316.938	456.09
317.163	456.04
317.389	456.58
317.615	457.78
317.841	457.4
318.066	459.07
318.292	460.07
318.518	460.76
318.743	461.15
318.969	462.05
319.195	464.31
319.42	464.38
319.646	466.13
319.872	467.36
320.097	467.07
320.323	468.91
320.548	468.65
320.774	470.27
320.999	471.25
321.225	473.76
321.45	473.84
321.676	472.47
321.901	474.07
322.127	475.56
322.352	476.11
322.578	477.95
322.803	479.65
323.029	481.82
323.254	482.65
323.479	484.84
323.705	485.49
323.93	487.89
324.155	489.38
324.381	491.07
324.606	492.31
324.831	495.22
325.057	495.85
325.282	497.44
325.507	497.75
325.732	500.95
325.958	503.25
326.183	505.55
326.408	507.44
326.633	511.05
326.858	513.56
327.084	516.11
327.309	518.31
327.534	522.45
327.759	526.11
327.984	530.65
328.209	531.91
328.434	535.31
328.659	539.33
328.884	542.98
329.109	545.76
329.334	549.33
329.559	552.98
329.784	555.67
330.009	558.87
330.234	560.38
330.459	564.49
330.684	568.24
330.909	571.47
331.134	574.78
331.359	578.53
331.584	583.8
331.809	586.44
332.034	590.6
332.259	595.4
332.483	599.22
332.708	604.71
332.933	609.89
333.158	613.55
333.383	617.69
333.607	622.02
333.832	626.53
334.057	629.73
334.282	635.89
334.506	640.98
334.731	644.85
334.956	650.49
335.18	656.18
335.405	660.04
335.63	666.85
335.854	672.85
336.079	677.49
336.303	681.85
336.528	687.91
336.753	693.04
336.977	698.18
337.202	705.69
337.426	710.96
337.651	717.07
337.875	723.42
338.1	730.93
338.324	737.47
338.549	746.51
338.773	754.33
338.997	761.65
339.222	769
339.446	775.93
339.671	783.49
339.895	792.2
340.119	799.05
340.344	807.42
340.568	813.56
340.792	820.67
341.017	827.24
341.241	835.73
341.465	842.85
341.689	851.27
341.914	860.15
342.138	867.62
342.362	875.35
342.586	883.33
342.811	890.33
343.035	900.13
343.259	907.96
343.483	916.85
343.707	924.58
343.931	935.42
344.155	943.73
344.38	953.45
344.604	961.95
344.828	972.38
345.052	981.31
345.276	991.47
345.5	998.45
345.724	1008.85
345.948	1018.56
346.172	1029.55
346.396	1038.56
346.62	1050
346.844	1059.76
347.068	1070.02
347.292	1078.8
347.515	1090.04
347.739	1101.53
347.963	1112.36
348.187	1123.58
348.411	1134.04
348.635	1143.91
348.859	1155.65
349.082	1164.58
349.306	1174.15
349.53	1185.85
349.754	1196.38
349.977	1205.18
350.201	1214.31
350.425	1225.8
350.649	1235.89
350.872	1245.76
351.096	1257
351.32	1265.73
351.543	1277.45
351.767	1288.56
351.99	1299.51
352.214	1313.02
352.438	1324.87
352.661	1336.69
352.885	1348.36
353.108	1361.51
353.332	1372.85
353.555	1384.15
353.779	1396.16
354.002	1407.31
354.226	1419.95
354.449	1431.18
354.673	1441.22
354.896	1453.96
355.12	1467.31
355.343	1478.89
355.566	1489.64
355.79	1504.09
356.013	1515.49
356.237	1526.55
356.46	1539.8
356.683	1551.38
356.907	1564.65
357.13	1577.8
357.353	1589.29
357.576	1601.07
357.8	1613.65
358.023	1624.98
358.246	1636.38
358.469	1650.15
358.693	1664.69
358.916	1676.95
359.139	1691.13
359.362	1702.64
359.585	1714.36
359.808	1726.76
360.031	1737.95
360.255	1751.56
360.478	1765.85
360.701	1778.84
360.924	1792.36
361.147	1803.47
361.37	1815.56
361.593	1830.07
361.816	1844.93
362.039	1858.62
362.262	1873.91
362.485	1888.58
362.708	1902.49
362.931	1915.44
363.154	1926.82
363.377	1939.64
363.599	1953.75
363.822	1968
364.045	1979.09
364.268	1992.73
364.491	2007.67
364.714	2023.64
364.936	2036.65
365.159	2051.4
365.382	2066.69
365.605	2082.33
365.828	2099.69
366.05	2115.76
366.273	2131.91
366.496	2148.53
366.718	2161.2
366.941	2175.33
367.164	2189.93
367.386	2207.62
367.609	2221.71
367.832	2238.65
368.054	2255.78
368.277	2270.16
368.5	2286.36
368.722	2301.04
368.945	2317.84
369.167	2337.49
369.39	2355.31
369.612	2370.15
369.835	2387.25
370.057	2406.78
370.28	2421.91
370.502	2437.56
370.725	2454.13
370.947	2471.84
371.169	2489.6
371.392	2506.05
371.614	2521.42
371.837	2537.96
372.059	2554.07
372.281	2569.89
372.504	2584.73
372.726	2602.87
372.948	2618.49
373.171	2635.8
373.393	2651.76
373.615	2671.42
373.837	2688.2
374.06	2705.62
374.282	2723.25
374.504	2741.45
374.726	2760.13
374.948	2778.15
375.17	2795.51
375.393	2817.69
375.615	2833.15
375.837	2850.05
376.059	2868.35
376.281	2886.98
376.503	2908.67
376.725	2927.27
376.947	2947.91
377.169	2967.33
377.391	2987.73
377.613	3010.16
377.835	3030.35
378.057	3052.31
378.279	3076.15
378.501	3096.53
378.723	3117.95
378.945	3135.69
379.167	3157.11
379.389	3177.69
379.611	3200.84
379.833	3223.27
380.054	3243.6
380.276	3263.69
380.498	3286.75
380.72	3310.53
380.942	3332.04
381.163	3355.6
381.385	3382.44
381.607	3409.05
381.829	3434.29
382.05	3460
382.272	3484.2
382.494	3511.2
382.716	3538.91
382.937	3566.93
383.159	3592.13
383.381	3620
383.602	3644.38
383.824	3668.56
384.045	3696.25
384.267	3723.31
384.488	3746.91
384.71	3774.75
384.932	3798.75
385.153	3822.07
385.375	3847.87
385.596	3872.29
385.818	3897.11
386.039	3925.47
386.261	3953.02
386.482	3979.31
386.703	4006.33
386.925	4035.87
387.146	4061.33
387.368	4088.98
387.589	4121.05
387.81	4148.09
388.032	4178.07
388.253	4207.09
388.474	4237.82
388.696	4264.76
388.917	4291.8
389.138	4320.96
389.359	4346.67
389.581	4377.47
389.802	4405.96
390.023	4434.95
390.244	4465.09
390.465	4495.2
390.687	4528.13
390.908	4554.84
391.129	4585.91
391.35	4612.87
391.571	4642.78
391.792	4672.55
392.013	4701.71
392.234	4734.05
392.455	4765.05
392.677	4799.82
392.898	4833.47
393.119	4863.13
393.34	4894.53
393.561	4928.87
393.782	4964.42
394.003	4999.91
394.223	5036.02
394.444	5071.84
394.665	5107.91
394.886	5137.75
395.107	5166.75
395.328	5197.35
395.549	5230.69
395.77	5265.16
395.99	5301.13
396.211	5334.53
396.432	5366.91
396.653	5399.64
396.874	5429.07
397.094	5459.87
397.315	5494.4
397.536	5530.82
397.757	5565.36
397.977	5603.24
398.198	5638.05
398.419	5664.75
398.639	5701.33
398.86	5732.55
399.081	5766.49
399.301	5800.89
399.522	5834.8
399.742	5869.31
399.963	5904.07
400.184	5934.42
400.404	5959.89
400.625	5990.16
400.845	6026.98
401.066	6055.56
401.286	6089.98
401.507	6123.11
401.727	6154.24
401.948	6190.6
402.168	6226
402.388	6258.65
402.609	6293.22
402.829	6329.84
403.05	6367.2
403.27	6402.29
403.49	6436.29
403.711	6473.15
403.931	6509.75
404.151	6546.49
404.372	6575.25
404.592	6609.87
404.812	6640.04
405.032	6673.84
405.253	6707.55
405.473	6742.31
405.693	6775.85
405.913	6814.07
406.133	6845.44
406.353	6881.67
406.574	6918.31
406.794	6952.84
407.014	6988.02
407.234	7025.07
407.454	7064.13
407.674	7102.51
407.894	7139.53
408.114	7172
408.334	7205.58
408.554	7240.6
408.774	7272.55
408.994	7310.91
409.214	7351.15
409.434	7384.89
409.654	7423.44
409.874	7460.84
410.094	7494.35
410.314	7531.29
410.534	7570.93
410.754	7611.47
410.974	7649.36
411.193	7688.16
411.413	7722.55
411.633	7761.16
411.853	7800.55
412.073	7837.22
412.292	7873.91
412.512	7918.56
412.732	7955.31
412.952	7995.16
413.171	8032.89
413.391	8077.04
413.611	8116.65
413.831	8161.31
414.05	8202.85
414.27	8247.33
414.489	8290.42
414.709	8335.13
414.929	8377.44
415.148	8420.76
415.368	8465.53
415.587	8510.62
415.807	8551.76
416.026	8592.84
416.246	8634.25
416.465	8680.58
416.685	8722.93
416.904	8769.11
417.124	8810.62
417.343	8851.07
417.563	8900.33
417.782	8946.91
418.002	8987.4
418.221	9032.93
418.44	9079.31
418.66	9122.25
418.879	9161.56
419.098	9208.53
419.318	9251.33
419.537	9297.2
419.756	9345.16
419.976	9383.22
420.195	9424.44
420.414	9469.71
420.633	9509.73
420.853	9554.49
421.072	9602.42
421.291	9646.36
421.51	9689.53
421.729	9731.13
421.948	9772.09
422.168	9811.82
422.387	9860.16
422.606	9897.16
422.825	9946.8
423.044	9991.55
423.263	10037.98
423.482	10079.84
423.701	10121.8
423.92	10164.51
424.139	10213.64
424.358	10258.47
424.577	10304.95
424.796	10349.22
425.015	10398.55
425.234	10435.89
425.453	10485.76
425.672	10525.93
425.891	10574.27
426.11	10626.22
426.328	10676.96
426.547	10717.45
426.766	10768.42
426.985	10817.87
427.204	10859.65
427.422	10913.53
427.641	10963.78
427.86	11008.65
428.079	11057.71
428.297	11101.24
428.516	11148.31
428.735	11192.33
428.954	11244.89
429.172	11293.15
429.391	11338.4
429.61	11392.02
429.828	11433.67
430.047	11481.47
430.265	11533.49
430.484	11583.51
430.703	11630.91
430.921	11677.24
431.14	11718.51
431.358	11765.29
431.577	11811.62
431.795	11857.96
432.014	11903.85
432.232	11955.6
432.451	12005.8
432.669	12049.6
432.887	12093.07
433.106	12143.45
433.324	12188.42
433.543	12246.76
433.761	12293.24
433.979	12341.11
434.198	12388.95
434.416	12436.25
434.634	12478.38
434.853	12520.8
435.071	12574.42
435.289	12628.6
435.507	12675.62
435.726	12726.05
435.944	12767.65
436.162	12811.11
436.38	12859.93
436.598	12906.13
436.817	12946.4
437.035	13000.11
437.253	13052.04
437.471	13095.98
437.689	13135.07
437.907	13182.45
438.125	13222.64
438.343	13267.85
438.561	13318.07
438.78	13359.29
438.998	13408.16
439.216	13454.84
439.434	13494.73
439.652	13540.07
439.869	13587.6
440.087	13642.25
440.305	13690.18
440.523	13744.2
440.741	13791.82
440.959	13841.38
441.177	13892.44
441.395	13938.38
441.613	13988.31
441.831	14038.91
442.048	14087.82
442.266	14134.15
442.484	14181.45
442.702	14226.91
442.919	14276.42
443.137	14328.85
443.355	14373.93
443.573	14420.22
443.79	14469.35
444.008	14525.13
444.226	14575.31
444.443	14624.69
444.661	14666.44
444.879	14718.75
445.096	14768.45
445.314	14818.75
445.532	14866.31
445.749	14916.95
445.967	14968.35
446.184	15013.04
446.402	15049.84
446.619	15096.98
446.837	15137.15
447.054	15183.89
447.272	15224.51
447.489	15267.35
447.707	15307.18
447.924	15350.69
448.141	15394.51
448.359	15440.25
448.576	15490.55
448.794	15543.47
449.011	15593.89
449.228	15647.24
449.446	15693.67
449.663	15743.55
449.88	15796.51
450.098	15851.71
450.315	15904.56
450.532	15954.11
450.749	15998.84
450.967	16047.07
451.184	16094.25
451.401	16143.35
451.618	16188.05
451.835	16237.44
452.052	16281.73
452.27	16328.2
452.487	16365.82
452.704	16410.53
452.921	16467.65
453.138	16512.36
453.355	16562.85
453.572	16611.85
453.789	16659.42
454.006	16710.84
454.223	16763.64
454.44	16816.42
454.657	16866.29
454.874	16925.91
455.091	16970.56
455.308	17008.24
455.525	17058.89
455.742	17106.53
455.959	17160.02
456.176	17203.93
456.393	17250.2
456.609	17297.62
456.826	17337.42
457.043	17386.56
457.26	17431.56
457.477	17476.89
457.693	17523.04
457.91	17572.85
458.127	17616.33
458.344	17659.82
458.56	17700.64
458.777	17746.78
458.994	17783.67
459.21	17823.27
459.427	17851.35
459.644	17881.73
459.86	17921.36
460.077	17956.85
460.294	17987.85
460.51	18019.38
460.727	18047.6
460.943	18084.76
461.16	18119.38
461.376	18155.29
461.593	18197.18
461.809	18242.96
462.026	18283.11
462.242	18319.78
462.459	18356.09
462.675	18398.58
462.892	18438.84
463.108	18477.91
463.324	18514.62
463.541	18546
463.757	18588.78
463.974	18629.84
464.19	18665.78
464.406	18712.71
464.623	18759.58
464.839	18810.35
465.055	18855.24
465.271	18902.82
465.488	18952.31
465.704	19005.89
465.92	19061.38
466.136	19114.33
466.353	19164.67
466.569	19219.84
466.785	19266.56
467.001	19313.47
467.217	19367.15
467.433	19423.67
467.649	19480.44
467.865	19538.84
468.082	19597.53
468.298	19651.38
468.514	19708.07
468.73	19771.11
468.946	19837.56
469.162	19903.69
469.378	19970.33
469.594	20031.27
469.81	20091.53
470.026	20156.73
470.242	20226.02
470.457	20298.38
470.673	20370.95
470.889	20445.53
471.105	20513.75
471.321	20580.76
471.537	20641.71
471.753	20714.8
471.968	20784.51
472.184	20855.71
472.4	20925.87
472.616	20999.11
472.832	21065.69
473.047	21135.67
473.263	21206.11
473.479	21276.73
473.694	21351.05
473.91	21431.84
474.126	21509.55
474.341	21593.71
474.557	21670.11
474.773	21734.38
474.988	21799.31
475.204	21872.98
475.42	21949.82
475.635	22022.82
475.851	22093.29
476.066	22157.35
476.282	22228.33
476.497	22287.93
476.713	22352.76
476.928	22422.33
477.144	22501.8
477.359	22568.13
477.575	22629.6
477.79	22689.11
478.005	22745.67
478.221	22810.64
478.436	22870.38
478.651	22930.15
478.867	22989.55
479.082	23042.76
479.297	23093.51
479.513	23139.13
479.728	23187.53
479.943	23235.55
480.159	23289.05
480.374	23344.87
480.589	23394.87
480.804	23453.56
481.019	23500.67
481.235	23549
481.45	23595.53
481.665	23642.87
481.88	23704.95
482.095	23765.53
482.31	23820.84
482.525	23876.13
482.741	23929.45
482.956	23973.67
483.171	24018.22
483.386	24065.73
483.601	24119.51
483.816	24164.75
484.031	24224.6
484.246	24261.15
484.461	24300.22
484.676	24341.25
484.891	24381.55
485.105	24416.91
485.32	24462.89
485.535	24505.42
485.75	24553.85
485.965	24596.53
486.18	24638.91
486.395	24676.65
486.609	24714.24
486.824	24753.96
487.039	24795.45
487.254	24832.71
487.469	24876.05
487.683	24916.42
487.898	24952.67
488.113	24987.82
488.327	25026.82
488.542	25064.78
488.757	25096
488.972	25139.22
489.186	25185.16
489.401	25221.44
489.615	25252.49
489.83	25288.85
490.045	25324.05
490.259	25368.31
490.474	25400.55
490.688	25424.25
490.903	25460.49
491.117	25495.42
491.332	25524.75
491.546	25557.38
491.761	25592.67
491.975	25632.82
492.19	25661.76
492.404	25695.27
492.618	25722.33
492.833	25752.67
493.047	25781.82
493.262	25812.75
493.476	25836.16
493.69	25867.35
493.905	25887.85
494.119	25912.22
494.333	25935.49
494.547	25956.18
494.762	25975.49
494.976	26003.13
495.19	26032.05
495.404	26064.2
495.619	26083.04
495.833	26116.2
496.047	26140.24
496.261	26163.65
496.475	26176.98
496.689	26190.24
496.903	26207.73
497.117	26210.89
497.332	26204.24
497.546	26200.56
497.76	26193.53
497.974	26185.35
498.188	26168.82
498.402	26154.31
498.616	26143.56
498.83	26142.22
499.044	26133.85
499.258	26125.45
499.472	26131.78
499.685	26129.55
499.899	26135.16
500.113	26140.44
500.327	26160.56
500.541	26174.64
500.755	26187.62
500.969	26201.91
501.183	26217.13
501.396	26235.78
501.61	26261.82
501.824	26289.38
502.038	26322.73
502.251	26344.75
502.465	26370.13
502.679	26380.42
502.892	26400.69
503.106	26420.84
503.32	26444.64
503.533	26465.29
503.747	26489.89
503.961	26511.16
504.174	26521.65
504.388	26539.93
504.602	26565.69
504.815	26596.25
505.029	26637.38
505.242	26672.53
505.456	26719.42
505.669	26757
505.883	26801.13
506.096	26849.07
506.31	26893.69
506.523	26955.29
506.736	27015.87
506.95	27075.09
507.163	27125.75
507.377	27183.2
507.59	27247.55
507.803	27301.93
508.017	27369.16
508.23	27435.76
508.443	27494.95
508.657	27570.56
508.87	27634.07
509.083	27695.73
509.296	27758.55
509.51	27838.36
509.723	27913.2
509.936	27989.42
510.149	28080.11
510.363	28165.71
510.576	28242.13
510.789	28340.53
511.002	28428.76
511.215	28526.84
511.428	28629.73
511.641	28734.2
511.854	28836.2
512.067	28941.73
512.28	29048.31
512.493	29146.18
512.707	29245.16
512.92	29358.49
513.132	29456.15
513.345	29556.95
513.558	29655.11
513.771	29755.93
513.984	29858.4
514.197	29965.15
514.41	30061.73
514.623	30169.45
514.836	30274.71
515.049	30373.75
515.262	30471.25
515.474	30578.73
515.687	30681.67
515.9	30783.8
516.113	30883.6
516.325	30978.36
516.538	31062.51
516.751	31160.4
516.964	31241.78
517.176	31335.82
517.389	31425.16
517.602	31522.91
517.814	31605.16
518.027	31688.96
518.24	31768.87
518.452	31846.16
518.665	31927.2
518.877	32005.73
519.09	32083.13
519.303	32158.55
519.515	32219.33
519.728	32289.09
519.94	32339.71
520.153	32402.09
520.365	32459.16
520.578	32520.11
520.79	32578.8
521.002	32644.87
521.215	32707.04
521.427	32760.95
521.64	32815.82
521.852	32864.07
522.064	32915.27
522.277	32970.25
522.489	33024.91
522.701	33079.84
522.914	33137.87
523.126	33194.87
523.338	33235.78
523.551	33279.49
523.763	33323.51
523.975	33376.38
524.187	33429.67
524.399	33477.67
524.612	33523.93
524.824	33571.18
525.036	33610.47
525.248	33635.47
525.46	33669.75
525.672	33713.82
525.884	33755.8
526.096	33786.45
526.308	33813.02
526.521	33842.95
526.733	33879.55
526.945	33908.49
527.157	33937.44
527.369	33967.58
527.581	34007.96
527.793	34032.65
528.004	34053.89
528.216	34076.04
528.428	34107.53
528.64	34136.55
528.852	34172.49
529.064	34199.33
529.276	34231.85
529.488	34253.02
529.699	34275.93
529.911	34305.4
530.123	34340.38
530.335	34360.45
530.547	34396.22
530.758	34427.55
530.97	34451.93
531.182	34483.69
531.393	34514.31
531.605	34544.13
531.817	34581.96
532.029	34619.49
532.24	34646.36
532.452	34662.49
532.663	34697.8
532.875	34718.07
533.087	34741.31
533.298	34759.91
533.51	34777
533.721	34796.89
533.933	34813.56
534.144	34827.85
534.356	34846.4
534.567	34866.44
534.779	34886.44
534.99	34902.07
535.202	34925.22
535.413	34946.55
535.624	34971.76
535.836	34992.85
536.047	35007.82
536.259	35028.24
536.47	35042.58
536.681	35052.45
536.893	35059.4
537.104	35081.82
537.315	35094.31
537.526	35110.87
537.738	35127.31
537.949	35147.84
538.16	35164.91
538.371	35180.84
538.582	35194.67
538.794	35207.6
539.005	35228.64
539.216	35251.29
539.427	35268.29
539.638	35288.95
539.849	35298.49
540.06	35303.25
540.272	35307.25
540.483	35311.56
540.694	35315.65
540.905	35331.36
541.116	35350.8
541.327	35363.18
541.538	35364.95
541.749	35366.42
541.96	35374.38
542.17	35380.84
542.381	35387.64
542.592	35397.6
542.803	35406.49
543.014	35417.65
543.225	35420.65
543.436	35420.95
543.647	35430.53
543.857	35435.89
544.068	35443.44
544.279	35450.29
544.49	35456.75
544.701	35468.56
544.911	35478.8
545.122	35496.49
545.333	35506.38
545.543	35521.16
545.754	35525.42
545.965	35526.62
546.175	35544.55
546.386	35557.33
546.597	35569.18
546.807	35583.51
547.018	35597.35
547.229	35610.15
547.439	35607.87
547.65	35616.62
547.86	35613.55
548.071	35629.33
548.281	35650.16
548.492	35659.31
548.702	35666.8
548.913	35672.82
549.123	35675.45
549.333	35681.16
549.544	35681.6
549.754	35684.87
549.965	35687.98
550.175	35704.8
550.385	35714.96
550.596	35707.62
550.806	35711.05
551.016	35718.24
551.227	35721.85
551.437	35729.25
551.647	35733.67
551.857	35745.55
552.068	35762.78
552.278	35777
552.488	35780.42
552.698	35783.62
552.908	35789.69
553.119	35791.44
553.329	35788.33
553.539	35795.02
553.749	35782.27
553.959	35780.78
554.169	35773.07
554.379	35760.6
554.589	35762.58
554.799	35759.69
555.009	35754.65
555.219	35754.45
555.429	35752.2
555.639	35752.89
555.849	35749.56
556.059	35757.69
556.269	35752.67
556.479	35746.51
556.689	35754.4
556.899	35743.15
557.109	35735.25
557.319	35739.05
557.528	35739.6
557.738	35737.69
557.948	35732.18
558.158	35717.45
558.368	35713.04
558.577	35709.73
558.787	35702.42
558.997	35687.95
559.207	35678.24
559.416	35670.15
559.626	35656.71
559.836	35643.98
560.045	35634.87
560.255	35641.11
560.465	35641.22
560.674	35643.8
560.884	35650.22
561.093	35656.49
561.303	35654.62
561.512	35645.02
561.722	35634.42
561.932	35624.05
562.141	35609.82
562.351	35600.02
562.56	35584.25
562.769	35574.75
562.979	35558.15
563.188	35539.58
563.398	35526.65
563.607	35525.8
563.817	35527.6
564.026	35535.31
564.235	35526.11
564.445	35527.38
564.654	35522
564.863	35520.64
565.073	35512.98
565.282	35505.6
565.491	35488.35
565.7	35467.42
565.91	35437.53
566.119	35420.95
566.328	35401.29
566.537	35385.27
566.746	35364.82
566.956	35345.49
567.165	35317.35
567.374	35302.31
567.583	35294.85
567.792	35290.02
568.001	35286.96
568.21	35277.35
568.419	35251.55
568.628	35217.87
568.837	35192.78
569.046	35168.45
569.255	35144.16
569.464	35117.91
569.673	35085.27
569.882	35058.56
570.091	35018.56
570.3	34989.82
570.509	34960.76
570.718	34944.11
570.927	34940.55
571.135	34927.93
571.344	34908.55
571.553	34896.69
571.762	34897.78
571.971	34894.13
572.18	34870.82
572.388	34867.24
572.597	34855.27
572.806	34838.47
573.014	34822.95
573.223	34796.47
573.432	34773.85
573.641	34755.71
573.849	34738.04
574.058	34703.18
574.266	34677.73
574.475	34661.18
574.684	34634.24
574.892	34611.35
575.101	34597.24
575.309	34574.91
575.518	34552.91
575.726	34537.8
575.935	34523.65
576.143	34499.8
576.352	34484.91
576.56	34462.55
576.769	34433.67
576.977	34426.69
577.186	34399.53
577.394	34379.98
577.602	34360.96
577.811	34342.75
578.019	34318.4
578.228	34302.11
578.436	34275.29
578.644	34245.76
578.852	34223.4
579.061	34203.85
579.269	34168.56
579.477	34149.87
579.685	34125.31
579.894	34106
580.102	34075.47
580.31	34056.38
580.518	34024.76
580.726	34000.47
580.935	33977.16
581.143	33951.04
581.351	33933.76
581.559	33909.18
581.767	33885.49
581.975	33864.16
582.183	33834.27
582.391	33812.91
582.599	33786.93
582.807	33755.69
583.015	33739.42
583.223	33719.87
583.431	33702.95
583.639	33673.91
583.847	33651.73
584.055	33634.62
584.263	33606.84
584.471	33578.33
584.678	33554.98
584.886	33533.33
585.094	33518.45
585.302	33492.71
585.51	33464.87
585.718	33442.36
585.925	33417.36
586.133	33398.84
586.341	33369.87
586.549	33350.87
586.756	33330.71
586.964	33308.47
587.172	33275.47
587.379	33248.53
587.587	33216.2
587.795	33196.25
588.002	33167.36
588.21	33143.33
588.417	33105.42
588.625	33068.6
588.833	33029.76
589.04	33006.24
589.248	32976.58
589.455	32959.35
589.663	32943.87
589.87	32926.22
590.078	32899.76
590.285	32878.07
590.492	32847.55
590.7	32829.76
590.907	32805.05
591.115	32781.73
591.322	32748.24
591.529	32718.4
591.737	32681.16
591.944	32637.16
592.151	32599.96
592.359	32563.45
592.566	32514.82
592.773	32484.76
592.981	32448.51
593.188	32419.56
593.395	32392.89
593.602	32367.27
593.809	32336.96
594.017	32302.82
594.224	32278
594.431	32251.47
594.638	32219.25
594.845	32201.4
595.052	32171.13
595.259	32144.22
595.466	32122.16
595.673	32094.96
595.88	32073.93
596.088	32053.69
596.295	32038.56
596.502	32009.15
596.709	31982.33
596.915	31954.73
597.122	31929.93
597.329	31912.51
597.536	31884.69
597.743	31854.96
597.95	31828.85
598.157	31789.35
598.364	31750.62
598.571	31703.75
598.777	31652.8
598.984	31601.16
599.191	31551.8
599.398	31486.76
599.605	31432.62
599.811	31377.2
600.018	31316.87
600.225	31250.58
600.431	31196.05
600.638	31151.85
600.845	31105.16
601.052	31070.15
601.258	31039.8
601.465	30993.67
601.671	30945.67
601.878	30867.47
602.085	30784.2
602.291	30683.78
602.498	30564.85
602.704	30421.82
602.911	30263.93
603.117	30081.69
603.324	29879.15
603.53	29656.49
603.737	29432.95
603.943	29196.38
604.15	28954.53
604.356	28710.2
604.562	28458.93
604.769	28206.44
604.975	27952.24
605.181	27687.45
605.388	27432.35
605.594	27177.02
605.8	26914.35
606.007	26654.02
606.213	26391.05
606.419	26125.87
606.625	25861.13
606.832	25599.96
607.038	25334.91
607.244	25070
607.45	24812.64
607.656	24547.65
607.863	24281.4
608.069	24011.82
608.275	23741.95
608.481	23478.4
608.687	23205.56
608.893	22933.36
609.099	22657.31
609.305	22386.31
609.511	22117.11
609.717	21836.45
609.923	21557.53
610.129	21270.13
610.335	20986.87
610.541	20694.78
610.747	20400.49
610.953	20114.67
611.159	19816.49
611.365	19522.73
611.571	19220.65
611.776	18909.47
611.982	18603.82
612.188	18288.22
612.394	17979.62
612.6	17666.49
612.806	17353.71
613.011	17039
613.217	16723.73
613.423	16408.44
613.628	16093.87
613.834	15791.89
614.04	15497.78
614.246	15194.82
614.451	14913.22
614.657	14635.49
614.862	14368.58
615.068	14104.6
615.274	13841.42
615.479	13595.87
615.685	13349.65
615.89	13106
616.096	12862.89
616.301	12617.93
616.507	12376.58
616.712	12134.16
616.918	11882.45
617.123	11624.25
617.329	11367.15
617.534	11109.84
617.74	10841.05
617.945	10579.04
618.15	10301.33
618.356	9865.04
618.561	9070.69
618.766	8113.84
618.972	7122.6
619.177	6161.49
619.382	5226.71
619.588	4316.07
619.793	3772.96
619.998	3134.4
620.203	2369.37
620.408	1444.51
620.614	537.97
