Data from test1_MAYP1115451__26__10-17-17-992.txt Node

Date: Wed Jun 12 10:17:17 MDT 2024
User: Modes Lab
Spectrometer: MAYP111545
Trigger mode: 0
Integration Time (sec): 8.000000E-3
Scans to average: 5
Electric dark correction enabled: true
Nonlinearity correction enabled: false
Boxcar width: 5
XAxis mode: Wavelengths
Number of Pixels in Spectrum: 2068
>>>>>Begin Spectral Data<<<<<
165.214	162.8
165.449	163.93
165.683	173
165.918	181.57
166.152	186.54
166.387	191.59
166.621	123.35
166.856	162.23
167.09	181.23
167.325	203.39
167.559	219.77
167.794	234.99
168.028	240.95
168.263	241.88
168.497	241.61
168.732	243.55
168.966	243.99
169.2	245.92
169.435	247.26
169.669	248.52
169.903	251.19
170.138	251.99
170.372	252.7
170.606	254.66
170.841	256.17
171.075	257.68
171.309	259.5
171.544	261.19
171.778	262.54
172.012	264.12
172.246	264.46
172.48	266.14
172.715	269.1
172.949	271.25
173.183	272.83
173.417	273.54
173.651	275.97
173.885	276.99
174.119	277.95
174.354	278.79
174.588	279.34
174.822	281.1
175.056	280.35
175.29	279.79
175.524	279.65
175.758	280.21
175.992	281.01
176.226	280.32
176.46	280.63
176.694	280.81
176.928	281.97
177.162	282.59
177.396	282.34
177.63	284.34
177.864	285.25
178.097	286.43
178.331	286.83
178.565	287.86
178.799	288.66
179.033	289.28
179.267	290.95
179.5	291.26
179.734	291.45
179.968	293.61
180.202	294.88
180.436	296.1
180.669	296.52
180.903	298.23
181.137	298.75
181.371	299.32
181.604	299.9
181.838	300.79
182.072	301.68
182.305	303.75
182.539	304.41
182.772	305.32
183.006	306.9
183.24	306.81
183.473	309.88
183.707	312.25
183.94	314.03
184.174	315.77
184.408	317.75
184.641	318.97
184.875	319.3
185.108	320.63
185.342	322.3
185.575	322.06
185.808	324.99
186.042	324.61
186.275	324.94
186.509	326.43
186.742	327.52
186.976	328.08
187.209	329.74
187.442	331.15
187.676	332.39
187.909	332.14
188.142	334.65
188.376	334.95
188.609	335.59
188.842	337.01
189.076	337.85
189.309	339.25
189.542	340.83
189.775	342.55
190.009	344.3
190.242	345.57
190.475	347.37
190.708	349.08
190.941	351.03
191.174	353.03
191.408	355.26
191.641	357.14
191.874	359.32
192.107	361.15
192.34	362.48
192.573	363.43
192.806	365.21
193.039	368.03
193.272	369.08
193.505	370.66
193.738	372.15
193.971	374.75
194.204	376.52
194.437	378.26
194.67	379.39
194.903	381.55
195.136	384.94
195.369	387.41
195.602	388.23
195.835	390.57
196.068	393.74
196.301	395.45
196.533	395.65
196.766	397.72
196.999	399.28
197.232	401.72
197.465	402.74
197.698	404.3
197.93	406.48
198.163	408.03
198.396	409.03
198.629	410.43
198.861	412.75
199.094	415.32
199.327	418.65
199.559	420.35
199.792	421.63
200.025	423.68
200.257	426.08
200.49	427.15
200.723	430.79
200.955	435.28
201.188	437.43
201.42	439.99
201.653	442.46
201.886	442.65
202.118	445.35
202.351	448.9
202.583	452.68
202.816	453.12
203.048	456.3
203.281	457.86
203.513	458.15
203.745	460.88
203.978	463.26
204.21	465.85
204.443	468.97
204.675	471.45
204.907	473.06
205.14	474.81
205.372	477.83
205.605	479.9
205.837	481.74
206.069	484.46
206.302	485.9
206.534	487.26
206.766	489.83
206.998	491.45
207.231	493.39
207.463	495.12
207.695	496.35
207.927	499.41
208.159	501.68
208.392	504.35
208.624	506.97
208.856	509.32
209.088	512.57
209.32	514.08
209.552	516.15
209.784	518.05
210.017	519.74
210.249	522.43
210.481	525.17
210.713	527.08
210.945	529.55
211.177	531.3
211.409	532.35
211.641	534.55
211.873	536.61
212.105	539.15
212.337	540.25
212.569	543.68
212.801	546.45
213.033	547.37
213.264	548.85
213.496	549.92
213.728	551.9
213.96	553.59
214.192	554.79
214.424	555.85
214.656	557.9
214.887	560.7
215.119	562.21
215.351	562.39
215.583	563.63
215.815	565.63
216.046	567.3
216.278	568.5
216.51	570.9
216.741	572.43
216.973	574.68
217.205	576.14
217.436	577.39
217.668	579.88
217.9	581.26
218.131	582.86
218.363	583.72
218.595	584.9
218.826	586.72
219.058	588.12
219.289	588.57
219.521	589.66
219.752	590.68
219.984	591.59
220.215	591.65
220.447	593.1
220.678	594.88
220.91	597.39
221.141	598.57
221.373	599.35
221.604	600.19
221.836	601.9
222.067	602.28
222.298	602.99
222.53	605.48
222.761	606.34
222.993	606.28
223.224	605.83
223.455	606.55
223.686	607.17
223.918	608.63
224.149	609.72
224.38	610.68
224.612	611.48
224.843	612.03
225.074	612.1
225.305	613.26
225.536	614.88
225.768	616.79
225.999	617.12
226.23	618.59
226.461	616.61
226.692	615.95
226.923	616.41
227.155	618.99
227.386	619.39
227.617	620.61
227.848	619.85
228.079	622.35
228.31	622.34
228.541	622.32
228.772	622.3
229.003	623.92
229.234	625.15
229.465	625.01
229.696	623.3
229.927	622.85
230.158	621.48
230.389	621.17
230.62	618.52
230.85	618.57
231.081	619.35
231.312	618.59
231.543	618.74
231.774	617.75
232.005	617.65
232.236	617.88
232.466	619.54
232.697	619.7
232.928	621.35
233.159	622.06
233.389	621.65
233.62	621.92
233.851	622.65
234.082	623.39
234.312	623.5
234.543	624.1
234.774	624.5
235.004	623.19
235.235	622.59
235.466	621.74
235.696	621.85
235.927	623.1
236.157	621.85
236.388	620.55
236.618	620.35
236.849	622.01
237.08	621.61
237.31	621.45
237.541	621.86
237.771	621.17
238.002	620.97
238.232	619.92
238.463	618.05
238.693	617.7
238.923	618.63
239.154	618.55
239.384	617.28
239.615	616.37
239.845	615.75
240.075	614.59
240.306	615.43
240.536	613.68
240.766	614.35
240.997	614.15
241.227	613.66
241.457	612.81
241.687	611.55
241.918	611.34
242.148	611.46
242.378	610.35
242.608	609.01
242.839	608.61
243.069	608.97
243.299	607.35
243.529	609.19
243.759	608.26
243.989	607.63
244.22	606.97
244.45	606.17
244.68	605.55
244.91	605.55
245.14	606.72
245.37	605.75
245.6	604.95
245.83	604.99
246.06	601.86
246.29	601.74
246.52	601.35
246.75	601.17
246.98	601.77
247.21	600.61
247.44	600.61
247.67	600.1
247.9	600.59
248.13	601.01
248.359	600.26
248.589	599.97
248.819	599.34
249.049	598.88
249.279	597.28
249.509	595.65
249.738	595.03
249.968	594.77
250.198	593.32
250.428	591.9
250.657	590.77
250.887	590.5
251.117	589.7
251.347	588.54
251.576	588.97
251.806	589.17
252.036	588.55
252.265	589.32
252.495	587.66
252.725	589.35
252.954	589.03
253.184	588.1
253.413	588.1
253.643	587.54
253.873	586.66
254.102	585.39
254.332	585.17
254.561	584.85
254.791	583.63
255.02	582.79
255.25	580.3
255.479	579.41
255.708	579.37
255.938	577.12
256.167	576.01
256.397	575.99
256.626	574.79
256.856	574.12
257.085	573.06
257.314	573.21
257.544	573.48
257.773	573.23
258.002	572.45
258.232	572.34
258.461	572.81
258.69	572.23
258.919	571.77
259.149	571.52
259.378	571.45
259.607	571.66
259.836	569.55
260.065	569.05
260.295	569.37
260.524	569.35
260.753	568.72
260.982	567.3
261.211	567.05
261.44	567.19
261.669	566.32
261.899	564.97
262.128	563.68
262.357	563.03
262.586	561.88
262.815	560.35
263.044	558.79
263.273	560.83
263.502	561.01
263.731	562.35
263.96	560.77
264.189	559.46
264.418	558.12
264.646	557.77
264.875	557.72
265.104	557.03
265.333	556.08
265.562	555.75
265.791	551.19
266.02	549.5
266.249	546.57
266.477	546.45
266.706	545.34
266.935	544.35
267.164	542.94
267.393	542.08
267.621	541.03
267.85	539.57
268.079	538.83
268.307	538.92
268.536	538.97
268.765	539.55
268.993	538.41
269.222	538.48
269.451	538.39
269.679	537.72
269.908	537.41
270.137	537.14
270.365	537.52
270.594	537.01
270.822	536.61
271.051	535.9
271.279	535.61
271.508	536.23
271.736	537.26
271.965	538.05
272.193	538.97
272.422	539.43
272.65	540.19
272.879	541.14
273.107	541.35
273.336	540.66
273.564	541.46
273.792	540.37
274.021	538.37
274.249	536.88
274.477	535.9
274.706	534.54
274.934	532.55
275.162	530.21
275.391	528.63
275.619	528.03
275.847	527.17
276.075	525.34
276.304	523.52
276.532	522.86
276.76	522.95
276.988	521.14
277.216	521.06
277.445	520.19
277.673	519.28
277.901	517.63
278.129	516.23
278.357	515.26
278.585	515.12
278.813	516.21
279.041	516.43
279.269	515.14
279.497	515.7
279.725	514.28
279.954	514.15
280.182	513.77
280.41	513.06
280.637	513.28
280.865	513.3
281.093	512.7
281.321	511.45
281.549	510.28
281.777	509.19
282.005	508.17
282.233	506.57
282.461	505.34
282.689	505.7
282.916	505.35
283.144	505.15
283.372	504.7
283.6	504.45
283.828	503.06
284.055	502.86
284.283	502.17
284.511	500.54
284.739	501.48
284.966	500.92
285.194	498.79
285.422	498.83
285.649	497.39
285.877	496.74
286.105	495.97
286.332	496.19
286.56	495.23
286.788	496.01
287.015	496.14
287.243	495.57
287.47	495.83
287.698	496.3
287.925	496.3
288.153	495.5
288.381	493.35
288.608	492.74
288.836	491.54
289.063	490.83
289.29	490.55
289.518	491.55
289.745	491.48
289.973	490.14
290.2	489.94
290.428	488.23
290.655	488.83
290.882	489.55
291.11	489.68
291.337	489.65
291.564	489.34
291.792	487.7
292.019	485.95
292.246	484.77
292.473	484.05
292.701	483.65
292.928	483.46
293.155	481.03
293.382	482.05
293.61	480.03
293.837	479.34
294.064	478.14
294.291	477.75
294.518	476.35
294.745	475.08
294.972	476.5
295.2	475.43
295.427	475.85
295.654	474.95
295.881	473.39
296.108	472.34
296.335	472.17
296.562	473.03
296.789	472.23
297.016	473.81
297.243	473.12
297.47	472.14
297.697	471.63
297.924	471.32
298.151	472.23
298.378	471.85
298.604	472.57
298.831	471.88
299.058	471.21
299.285	471.79
299.512	470.45
299.739	470.83
299.966	470.32
300.192	470.46
300.419	469.26
300.646	468.85
300.873	467.65
301.099	466.83
301.326	466.52
301.553	465.97
301.78	465.77
302.006	465.1
302.233	464.75
302.46	463.81
302.686	463.57
302.913	462.28
303.14	461.06
303.366	460.77
303.593	461.32
303.819	461.15
304.046	460.52
304.272	458.81
304.499	458.48
304.725	458.75
304.952	458.23
305.179	456.95
305.405	457.61
305.631	457.59
305.858	457.72
306.084	456.97
306.311	456.54
306.537	456.15
306.764	455.5
306.99	455.06
307.216	454.52
307.443	454.19
307.669	454.5
307.895	453.23
308.122	452.75
308.348	452.19
308.574	451.99
308.801	452.25
309.027	452.52
309.253	453.99
309.479	453.85
309.706	453.3
309.932	453.86
310.158	453.61
310.384	453.54
310.61	454.17
310.837	454.26
311.063	454.54
311.289	453.17
311.515	452.46
311.741	449.94
311.967	450.26
312.193	450.72
312.419	449.9
312.645	448.79
312.871	448.94
313.097	449.17
313.323	448.97
313.549	448.3
313.775	449.37
314.001	450.65
314.227	452.01
314.453	452.23
314.679	452.46
314.905	452.86
315.131	453.65
315.357	454.41
315.583	452.55
315.809	452.59
316.034	452.48
316.26	453.23
316.486	452.85
316.712	453.74
316.938	452.88
317.163	452.75
317.389	452.66
317.615	453.3
317.841	454.23
318.066	455.85
318.292	456.68
318.518	458.19
318.743	458.3
318.969	459.08
319.195	459.3
319.42	460.66
319.646	460.66
319.872	462.34
320.097	462.99
320.323	464.17
320.548	466.57
320.774	467.83
320.999	468.85
321.225	469.77
321.45	471.37
321.676	472.72
321.901	473.66
322.127	475.81
322.352	477.65
322.578	479.81
322.803	479.99
323.029	482.37
323.254	483.92
323.479	484.52
323.705	485.52
323.93	486.88
324.155	488.41
324.381	490.66
324.606	493.72
324.831	495.46
325.057	495.88
325.282	498.01
325.507	498.85
325.732	500.77
325.958	502.88
326.183	505.54
326.408	507.17
326.633	510.12
326.858	511.7
327.084	512.01
327.309	512.99
327.534	516.15
327.759	519.59
327.984	522.23
328.209	526.45
328.434	529.66
328.659	532.9
328.884	536.66
329.109	539.08
329.334	543.48
329.559	547.57
329.784	551.35
330.009	555.61
330.234	558.9
330.459	562.43
330.684	565.08
330.909	568.28
331.134	571.94
331.359	575.32
331.584	579.94
331.809	583.74
332.034	587.48
332.259	591.01
332.483	595.52
332.708	599.17
332.933	602.97
333.158	607.37
333.383	614.03
333.607	620.46
333.832	623.9
334.057	628.01
334.282	633.59
334.506	638.7
334.731	645.9
334.956	651.19
335.18	656.94
335.405	662.59
335.63	668.43
335.854	673.65
336.079	677.94
336.303	685.66
336.528	692.97
336.753	697.61
336.977	704.23
337.202	709.63
337.426	715.28
337.651	721.9
337.875	729.28
338.1	736.14
338.324	742.08
338.549	749.37
338.773	755.14
338.997	761.37
339.222	768.48
339.446	774.55
339.671	783.57
339.895	792.21
340.119	799.59
340.344	807.01
340.568	815.01
340.792	822.94
341.017	830.79
341.241	838.46
341.465	846.68
341.689	854.23
341.914	863.79
342.138	868.94
342.362	875.41
342.586	882.55
342.811	890.7
343.035	899.01
343.259	906.35
343.483	914.06
343.707	922.75
343.931	930.45
344.155	940.63
344.38	948.74
344.604	958.65
344.828	968.75
345.052	979.08
345.276	987.77
345.5	996.23
345.724	1006.43
345.948	1016.19
346.172	1026.37
346.396	1036.68
346.62	1048.3
346.844	1058.81
347.068	1069.21
347.292	1079.66
347.515	1089.72
347.739	1102.45
347.963	1112.68
348.187	1124.19
348.411	1135.15
348.635	1144.85
348.859	1155.37
349.082	1165.12
349.306	1175.92
349.53	1185.86
349.754	1195.68
349.977	1206.86
350.201	1215.72
350.425	1227.83
350.649	1238.61
350.872	1250.21
351.096	1261.97
351.32	1272.92
351.543	1283.79
351.767	1293.95
351.99	1306.72
352.214	1317.94
352.438	1328.85
352.661	1339.28
352.885	1349.19
353.108	1358.68
353.332	1368.15
353.555	1380.39
353.779	1392.72
354.002	1404.03
354.226	1416.94
354.449	1426.88
354.673	1440.03
354.896	1452.88
355.12	1465.74
355.343	1479.94
355.566	1494.26
355.79	1506.54
356.013	1519.05
356.237	1530.03
356.46	1542.06
356.683	1553.19
356.907	1566.08
357.13	1577.63
357.353	1588.32
357.576	1599.88
357.8	1609.5
358.023	1618.79
358.246	1632.55
358.469	1644.46
358.693	1657.45
358.916	1671.32
359.139	1684.52
359.362	1696.79
359.585	1710.86
359.808	1725.08
360.031	1738.48
360.255	1752.72
360.478	1766.15
360.701	1780.26
360.924	1791.34
361.147	1804.06
361.37	1815.7
361.593	1829.17
361.816	1841.92
362.039	1854.77
362.262	1867.75
362.485	1880.79
362.708	1893.5
362.931	1909.46
363.154	1922.26
363.377	1937.92
363.599	1954.08
363.822	1969.63
364.045	1983.72
364.268	2000.03
364.491	2012.46
364.714	2028.03
364.936	2042.66
365.159	2055.86
365.382	2070.26
365.605	2085.46
365.828	2104.86
366.05	2119.17
366.273	2133.03
366.496	2146.46
366.718	2160.52
366.941	2178.28
367.164	2191.12
367.386	2206.03
367.609	2224.08
367.832	2240.5
368.054	2254.21
368.277	2263.79
368.5	2278.61
368.722	2294.46
368.945	2311.46
369.167	2327.9
369.39	2343.21
369.612	2360.3
369.835	2378.06
370.057	2393.54
370.28	2409.99
370.502	2428.17
370.725	2446.94
370.947	2462.01
371.169	2476.9
371.392	2497.65
371.614	2514.81
371.837	2531.12
372.059	2548.99
372.281	2566.86
372.504	2585.68
372.726	2597.1
372.948	2612.34
373.171	2629.63
373.393	2648.9
373.615	2668.08
373.837	2684.39
374.06	2704.1
374.282	2721.01
374.504	2737.55
374.726	2753.32
374.948	2769.23
375.17	2794.14
375.393	2815.1
375.615	2834.9
375.837	2855.77
376.059	2874.15
376.281	2891.79
376.503	2909.37
376.725	2930.97
376.947	2950.97
377.169	2972.35
377.391	2994.99
377.613	3013.79
377.835	3031.61
378.057	3052.3
378.279	3067.94
378.501	3090.54
378.723	3107.72
378.945	3127.72
379.167	3147.54
379.389	3171.03
379.611	3193.05
379.833	3215.63
380.054	3240.54
380.276	3263.75
380.498	3284.21
380.72	3313.14
380.942	3335.3
381.163	3362.88
381.385	3387.72
381.607	3410.61
381.829	3434.43
382.05	3459.75
382.272	3484.34
382.494	3509.26
382.716	3535.08
382.937	3559.94
383.159	3584.57
383.381	3613.34
383.602	3639.77
383.824	3668.12
384.045	3696.23
384.267	3720.9
384.488	3746.99
384.71	3771.61
384.932	3796.55
385.153	3822.77
385.375	3850.95
385.596	3877.7
385.818	3901.65
386.039	3926.97
386.261	3950.21
386.482	3977.68
386.703	4006.1
386.925	4031.74
387.146	4060.88
387.368	4090.06
387.589	4118.06
387.81	4144.68
388.032	4171.75
388.253	4201.46
388.474	4233.19
388.696	4263.83
388.917	4291.28
389.138	4320.46
389.359	4352.25
389.581	4382.12
389.802	4407.7
390.023	4437.5
390.244	4469.08
390.465	4498.3
390.687	4524.9
390.908	4555.28
391.129	4584.03
391.35	4616.01
391.571	4648.75
391.792	4678.57
392.013	4705.99
392.234	4738.92
392.455	4770.75
392.677	4802.63
392.898	4835.85
393.119	4868.26
393.34	4896.54
393.561	4927.86
393.782	4960.05
394.003	4990.21
394.223	5019.41
394.444	5054.65
394.665	5086.95
394.886	5118.94
395.107	5153.21
395.328	5183.59
395.549	5216.17
395.77	5249.63
395.99	5285.59
396.211	5318.95
396.432	5352.55
396.653	5389.65
396.874	5421.06
397.094	5453.63
397.315	5488.03
397.536	5517.08
397.757	5550.39
397.977	5590.26
398.198	5625.3
398.419	5657.92
398.639	5691.08
398.86	5723.55
399.081	5759.14
399.301	5790.65
399.522	5825.54
399.742	5859.95
399.963	5898.32
400.184	5934.52
400.404	5963.63
400.625	5996.39
400.845	6031.74
401.066	6066.81
401.286	6101.74
401.507	6131.68
401.727	6168.15
401.948	6198.43
402.168	6234.01
402.388	6264.08
402.609	6299.03
402.829	6336.52
403.05	6371.83
403.27	6402.68
403.49	6436.88
403.711	6471.92
403.931	6508.97
404.151	6543.63
404.372	6579.48
404.592	6615.5
404.812	6653.19
405.032	6684.57
405.253	6711.06
405.473	6744.17
405.693	6782.79
405.913	6815.88
406.133	6851.15
406.353	6886.9
406.574	6922.06
406.794	6958.03
407.014	6990.45
407.234	7025.39
407.454	7063.32
407.674	7103.63
407.894	7137.52
408.114	7172.57
408.334	7207.46
408.554	7243.86
408.774	7279.08
408.994	7317.25
409.214	7353.08
409.434	7390.1
409.654	7426.75
409.874	7463.52
410.094	7504.57
410.314	7543.35
410.534	7581.25
410.754	7619.37
410.974	7652.99
411.193	7689.94
411.413	7721.35
411.633	7758.54
411.853	7796.74
412.073	7831.06
412.292	7865.57
412.512	7898.1
412.732	7938.94
412.952	7975.41
413.171	8014.48
413.391	8057.75
413.611	8096.25
413.831	8145.25
414.05	8188.75
414.27	8231.57
414.489	8279.19
414.709	8327.39
414.929	8374.05
415.148	8417.15
415.368	8460.5
415.587	8503.94
415.807	8546.23
416.026	8590.41
416.246	8632.05
416.465	8679.79
416.685	8719.7
416.904	8758.99
417.124	8800.25
417.343	8846.28
417.563	8890.28
417.782	8936.57
418.002	8985.95
418.221	9030.77
418.44	9073.26
418.66	9117.34
418.879	9160.08
419.098	9203.7
419.318	9250.9
419.537	9299.01
419.756	9340.54
419.976	9380.21
420.195	9425.99
420.414	9462.97
420.633	9503.43
420.853	9550.97
421.072	9590.39
421.291	9631.99
421.51	9679.46
421.729	9719.23
421.948	9756.66
422.168	9799.54
422.387	9848.01
422.606	9889.23
422.825	9936.74
423.044	9986.46
423.263	10026.46
423.482	10072.7
423.701	10119.19
423.92	10161.1
424.139	10211.35
424.358	10260.54
424.577	10308.7
424.796	10353.83
425.015	10401.32
425.234	10449.7
425.453	10489.99
425.672	10537.77
425.891	10580.48
426.11	10624.21
426.328	10675.06
426.547	10715.66
426.766	10768.9
426.985	10812.1
427.204	10862.26
427.422	10909.34
427.641	10958.43
427.86	11010.41
428.079	11062.37
428.297	11113.01
428.516	11163.23
428.735	11203.79
428.954	11254.88
429.172	11291.39
429.391	11338.05
429.61	11387.83
429.828	11432.19
430.047	11471.52
430.265	11517.92
430.484	11562.54
430.703	11610.46
430.921	11659.17
431.14	11709.55
431.358	11756.95
431.577	11807.14
431.795	11859.14
432.014	11901.86
432.232	11951.95
432.451	12002.74
432.669	12057.46
432.887	12107.79
433.106	12163.19
433.324	12209.21
433.543	12260.59
433.761	12312.3
433.979	12361.65
434.198	12409.35
434.416	12453.94
434.634	12505.86
434.853	12552.06
435.071	12587.85
435.289	12631.83
435.507	12673.3
435.726	12715.86
435.944	12763.25
436.162	12801.7
436.38	12848.19
436.598	12886.68
436.817	12932.35
437.035	12974.94
437.253	13024.48
437.471	13079.52
437.689	13126.7
437.907	13171.65
438.125	13222.94
438.343	13264.97
438.561	13314.43
438.78	13359.3
438.998	13408.57
439.216	13455.03
439.434	13502.01
439.652	13546.83
439.869	13585.19
440.087	13632.77
440.305	13676.57
440.523	13723.54
440.741	13771.35
440.959	13823.06
441.177	13872.21
441.395	13923.68
441.613	13972.79
441.831	14017.55
442.048	14066.32
442.266	14113.46
442.484	14168.48
442.702	14220.92
442.919	14269.86
443.137	14324.19
443.355	14373.34
443.573	14414.61
443.79	14467.65
444.008	14518.68
444.226	14568.06
444.443	14616.3
444.661	14668.34
444.879	14711.95
445.096	14765.34
445.314	14812.41
445.532	14850.63
445.749	14897.63
445.967	14948.25
446.184	14990.14
446.402	15036.75
446.619	15080.17
446.837	15125.65
447.054	15172.9
447.272	15221.23
447.489	15267.39
447.707	15316.01
447.924	15366.59
448.141	15412.59
448.359	15466.59
448.576	15517.95
448.794	15570.23
449.011	15625.21
449.228	15677.86
449.446	15726.77
449.663	15774.21
449.88	15814.1
450.098	15866.5
450.315	15914.15
450.532	15968.14
450.749	16014.19
450.967	16059.94
451.184	16101.94
451.401	16152.01
451.618	16194.37
451.835	16246.12
452.052	16289.35
452.27	16343.55
452.487	16386.48
452.704	16434.21
452.921	16471.99
453.138	16519.03
453.355	16561.3
453.572	16609.05
453.789	16660.5
454.006	16716.03
454.223	16758.83
454.44	16809.37
454.657	16855.3
454.874	16899.86
455.091	16951.23
455.308	17000.85
455.525	17043.25
455.742	17099.63
455.959	17144.19
456.176	17186.97
456.393	17233.81
456.609	17292.1
456.826	17334.86
457.043	17382.63
457.26	17432.54
457.477	17478.26
457.693	17527.01
457.91	17575.66
458.127	17613.32
458.344	17661.79
458.56	17702.25
458.777	17739.08
458.994	17775.01
459.21	17814.41
459.427	17846.77
459.644	17873.94
459.86	17907.3
460.077	17940.74
460.294	17971.74
460.51	18009.63
460.727	18042.66
460.943	18077.7
461.16	18108.94
461.376	18139.48
461.593	18173.59
461.809	18210.86
462.026	18260.79
462.242	18304.97
462.459	18338.86
462.675	18378.28
462.892	18418.08
463.108	18456.48
463.324	18498.19
463.541	18542.55
463.757	18583.88
463.974	18628.5
464.19	18677.95
464.406	18723.81
464.623	18765.32
464.839	18820.46
465.055	18872.14
465.271	18922.19
465.488	18971.03
465.704	19017.06
465.92	19070.08
466.136	19117.95
466.353	19169.25
466.569	19220.28
466.785	19272.26
467.001	19324.08
467.217	19373.52
467.433	19432.28
467.649	19483.81
467.865	19547.61
468.082	19606.74
468.298	19661.34
468.514	19725.35
468.73	19791.34
468.946	19854.75
469.162	19921.65
469.378	19993.81
469.594	20062.3
469.81	20128.45
470.026	20197.43
470.242	20261.75
470.457	20325.57
470.673	20399.88
470.889	20463.34
471.105	20530.21
471.321	20593.59
471.537	20648.92
471.753	20709.68
471.968	20779.81
472.184	20843.86
472.4	20912.74
472.616	20984.5
472.832	21065.05
473.047	21138.1
473.263	21218.08
473.479	21289.3
473.694	21364.68
473.91	21451.46
474.126	21526.26
474.341	21596.54
474.557	21673.66
474.773	21738.83
474.988	21805.35
475.204	21869.66
475.42	21937.65
475.635	22002.45
475.851	22072.45
476.066	22145.99
476.282	22206.06
476.497	22277.01
476.713	22343.88
476.928	22413.25
477.144	22492.95
477.359	22561.74
477.575	22628.88
477.79	22690.39
478.005	22755.97
478.221	22813.88
478.436	22876.08
478.651	22931.81
478.867	22987.85
479.082	23047.81
479.297	23099.17
479.513	23156.65
479.728	23207.41
479.943	23259.08
480.159	23311.59
480.374	23363.77
480.589	23423.01
480.804	23476.88
481.019	23533.5
481.235	23584.26
481.45	23633.46
481.665	23684.95
481.88	23726.75
482.095	23779.28
482.31	23830.5
482.525	23882.43
482.741	23932.43
482.956	23980.37
483.171	24019.81
483.386	24069.21
483.601	24120.06
483.816	24162.79
484.031	24214.97
484.246	24258.17
484.461	24299.03
484.676	24342.5
484.891	24387.83
485.105	24426.17
485.32	24469.9
485.535	24512.63
485.75	24545.3
485.965	24578.68
486.18	24628.46
486.395	24663.12
486.609	24710.17
486.824	24751.74
487.039	24792.65
487.254	24830.61
487.469	24871.48
487.683	24908.86
487.898	24951.28
488.113	24998.97
488.327	25035.34
488.542	25069.46
488.757	25107.48
488.972	25141.48
489.186	25177.7
489.401	25211.03
489.615	25243.59
489.83	25281.99
490.045	25321.66
490.259	25352.21
490.474	25382.43
490.688	25423.1
490.903	25448.15
491.117	25473.3
491.332	25503.25
491.546	25538.88
491.761	25569.81
491.975	25600.17
492.19	25632.45
492.404	25655.3
492.618	25684.01
492.833	25708.75
493.047	25741.52
493.262	25781.03
493.476	25819.85
493.69	25848.97
493.905	25882.55
494.119	25917.75
494.333	25954.65
494.547	25984.28
494.762	26016.06
494.976	26050.99
495.19	26081.81
495.404	26109.21
495.619	26125.05
495.833	26143.61
496.047	26165.01
496.261	26178.68
496.475	26192.7
496.689	26199.55
496.903	26202.12
497.117	26201.12
497.332	26200.9
497.546	26195.37
497.76	26175.46
497.974	26179.01
498.188	26172.06
498.402	26161.85
498.616	26152.97
498.83	26143.17
499.044	26138.81
499.258	26135.34
499.472	26138.17
499.685	26135.19
499.899	26142.45
500.113	26156.26
500.327	26155.39
500.541	26165.45
500.755	26184.15
500.969	26200.03
501.183	26211.79
501.396	26220.43
501.61	26240.48
501.824	26264.3
502.038	26284.15
502.251	26297.41
502.465	26325.41
502.679	26346.99
502.892	26368.66
503.106	26386.15
503.32	26408.97
503.533	26442.15
503.747	26472.01
503.961	26488.86
504.174	26505.48
504.388	26534.57
504.602	26579.83
504.815	26606.19
505.029	26644.05
505.242	26681.21
505.456	26725.28
505.669	26769.63
505.883	26804.92
506.096	26851.35
506.31	26911.74
506.523	26967.39
506.736	27019.7
506.95	27063.08
507.163	27116.19
507.377	27173.83
507.59	27234.74
507.803	27290.79
508.017	27349.75
508.23	27418.7
508.443	27488.32
508.657	27546.63
508.87	27614.94
509.083	27687.77
509.296	27761.74
509.51	27835.41
509.723	27913.63
509.936	27990.92
510.149	28073.77
510.363	28153.01
510.576	28236.32
510.789	28327.45
511.002	28423.94
511.215	28525.15
511.428	28619.68
511.641	28714.92
511.854	28823.55
512.067	28927.05
512.28	29027.32
512.493	29121.63
512.707	29231.74
512.92	29330.41
513.132	29431.94
513.345	29527.75
513.558	29628.14
513.771	29728.86
513.984	29836.88
514.197	29940.74
514.41	30045.77
514.623	30158.92
514.836	30273.83
515.049	30371.06
515.262	30479.75
515.474	30575.28
515.687	30686.55
515.9	30786.88
516.113	30893.28
516.325	30993.32
516.538	31084.81
516.751	31177.54
516.964	31258.19
517.176	31341.39
517.389	31434.14
517.602	31512.35
517.814	31595.55
518.027	31679.46
518.24	31747.23
518.452	31819.23
518.665	31895.23
518.877	31973.06
519.09	32045.92
519.303	32121.43
519.515	32200.95
519.728	32269.79
519.94	32335.92
520.153	32401.21
520.365	32463.26
520.578	32527.1
520.79	32593.68
521.002	32654.68
521.215	32705.5
521.427	32757.39
521.64	32807.05
521.852	32859.66
522.064	32920.77
522.277	32983.83
522.489	33044.37
522.701	33092.9
522.914	33150.88
523.126	33199.39
523.338	33246.19
523.551	33298.81
523.763	33352.85
523.975	33402.17
524.187	33445.99
524.399	33483.21
524.612	33514.9
524.824	33544.68
525.036	33589.99
525.248	33634.88
525.46	33685.85
525.672	33720.68
525.884	33755.48
526.096	33787.75
526.308	33829.68
526.521	33868.48
526.733	33892.34
526.945	33927.19
527.157	33971.92
527.369	33996.28
527.581	34023.08
527.793	34033.01
528.004	34068.7
528.216	34101.46
528.428	34134.77
528.64	34163.77
528.852	34187.85
529.064	34227.15
529.276	34260.25
529.488	34285.79
529.699	34316.5
529.911	34336.7
530.123	34372.26
530.335	34395.85
530.547	34423.54
530.758	34445.12
530.97	34465.59
531.182	34486.21
531.393	34522.83
531.605	34549.94
531.817	34579.15
532.029	34611.52
532.24	34650.19
532.452	34670.26
532.663	34699.92
532.875	34723.86
533.087	34749.65
533.298	34777.55
533.51	34802.3
533.721	34815.26
533.933	34835.59
534.144	34855.66
534.356	34875.15
534.567	34885.65
534.779	34899.75
534.99	34921.72
535.202	34935.28
535.413	34954.17
535.624	34979.19
535.836	34995.21
536.047	35006.19
536.259	35019.12
536.47	35021.34
536.681	35028.99
536.893	35042.72
537.104	35062.63
537.315	35072.55
537.526	35099.5
537.738	35110.75
537.949	35120.85
538.16	35136.19
538.371	35151.97
538.582	35175.75
538.794	35206.32
539.005	35228.94
539.216	35254.66
539.427	35270.7
539.638	35283.86
539.849	35296.01
540.06	35307.08
540.272	35317.77
540.483	35333.77
540.694	35356.92
540.905	35362.97
541.116	35373.19
541.327	35383.21
541.538	35390.83
541.749	35411.26
541.96	35420.17
542.17	35423.85
542.381	35439.57
542.592	35442.54
542.803	35453.46
543.014	35455.3
543.225	35456.61
543.436	35451.35
543.647	35458.01
543.857	35462.01
544.068	35471.86
544.279	35482.05
544.49	35486.94
544.701	35488.55
544.911	35491.72
545.122	35497.59
545.333	35497.12
545.543	35527.14
545.754	35544.81
545.965	35553.14
546.175	35565.15
546.386	35560.3
546.597	35567.83
546.807	35584.12
547.018	35596.15
547.229	35606.88
547.439	35603.37
547.65	35613.23
547.86	35603.25
548.071	35601.72
548.281	35607.94
548.492	35609.01
548.702	35617.55
548.913	35622.81
549.123	35621.37
549.333	35627.28
549.544	35642.75
549.754	35656.26
549.965	35660.74
550.175	35683.52
550.385	35699.59
550.596	35716.48
550.806	35715.15
551.016	35722.35
551.227	35724.3
551.437	35739.32
551.647	35746.21
551.857	35758.57
552.068	35776.3
552.278	35794.41
552.488	35795.3
552.698	35798.26
552.908	35795.81
553.119	35808.61
553.329	35810.74
553.539	35816.26
553.749	35811.61
553.959	35811.54
554.169	35798.35
554.379	35786.74
554.589	35784.3
554.799	35780.19
555.009	35778.5
555.219	35774.85
555.429	35773.68
555.639	35779.14
555.849	35775.5
556.059	35775.06
556.269	35775.99
556.479	35775.06
556.689	35779.88
556.899	35771.9
557.109	35774.55
557.319	35776.05
557.528	35776.39
557.738	35768.81
557.948	35758.66
558.158	35758.14
558.368	35745.1
558.577	35731.39
558.787	35723.97
558.997	35712.15
559.207	35700.83
559.416	35686.45
559.626	35670.37
559.836	35654.01
560.045	35656.19
560.255	35649.72
560.465	35645.21
560.674	35637.57
560.884	35634.35
561.093	35630.19
561.303	35619.81
561.512	35608.25
561.722	35597.77
561.932	35591.9
562.141	35591.05
562.351	35575.12
562.56	35563.01
562.769	35555.72
562.979	35551.35
563.188	35540.9
563.398	35537.14
563.607	35540.12
563.817	35542.79
564.026	35537.28
564.235	35533.99
564.445	35521.43
564.654	35518.72
564.863	35508.35
565.073	35493.85
565.282	35487.9
565.491	35480.32
565.7	35466.74
565.91	35451.88
566.119	35428.37
566.328	35413.23
566.537	35400.79
566.746	35382.92
566.956	35357.95
567.165	35353.88
567.374	35342.85
567.583	35326.25
567.792	35313.14
568.001	35302.05
568.21	35276.43
568.419	35265.59
568.628	35241.65
568.837	35208.7
569.046	35187.25
569.255	35168.54
569.464	35142.17
569.673	35105.72
569.882	35080.43
570.091	35050.81
570.3	35019.83
570.509	35003.94
570.718	34978.12
570.927	34959.52
571.135	34948.23
571.344	34929.17
571.553	34922.45
571.762	34905.81
571.971	34900.68
572.18	34893.35
572.388	34876.92
572.597	34851.25
572.806	34823.61
573.014	34806.28
573.223	34779.61
573.432	34751.55
573.641	34735.08
573.849	34710.32
574.058	34678.3
574.266	34652.39
574.475	34623.77
574.684	34605.05
574.892	34595.41
575.101	34585.46
575.309	34575.06
575.518	34564.48
575.726	34549.08
575.935	34524.05
576.143	34499.94
576.352	34486.86
576.56	34468.23
576.769	34447.1
576.977	34436.41
577.186	34416.72
577.394	34386.55
577.602	34349.95
577.811	34324.66
578.019	34306.28
578.228	34293.9
578.436	34273.9
578.644	34249.01
578.852	34222.26
579.061	34192.48
579.269	34157.28
579.477	34122.28
579.685	34105.01
579.894	34074.05
580.102	34048.54
580.31	34030.14
580.518	33997.85
580.726	33975.81
580.935	33950.34
581.143	33925.14
581.351	33904.12
581.559	33887.72
581.767	33868.88
581.975	33837.68
582.183	33828.1
582.391	33808.25
582.599	33777.65
582.807	33754.05
583.015	33719.81
583.223	33695.61
583.431	33670.9
583.639	33647.59
583.847	33621.32
584.055	33601.12
584.263	33581.03
584.471	33569.77
584.678	33547.08
584.886	33521.08
585.094	33500.03
585.302	33485.39
585.51	33466.1
585.718	33445.05
585.925	33421.81
586.133	33398.61
586.341	33380.45
586.549	33360.39
586.756	33328.46
586.964	33302.72
587.172	33272.66
587.379	33245.99
587.587	33218.26
587.795	33187.15
588.002	33165.14
588.21	33142.92
588.417	33109.94
588.625	33070.97
588.833	33038.59
589.04	33004.97
589.248	32981.43
589.455	32969.19
589.663	32938.17
589.87	32910.34
590.078	32889.23
590.285	32859.94
590.492	32824.7
590.7	32797.88
590.907	32779.68
591.115	32751.77
591.322	32720.46
591.529	32686.68
591.737	32653.26
591.944	32632.45
592.151	32600.81
592.359	32566.48
592.566	32533.26
592.773	32503.32
592.981	32469.37
593.188	32430.68
593.395	32402.81
593.602	32374.79
593.809	32349.21
594.017	32321.85
594.224	32287.48
594.431	32258.99
594.638	32227.25
594.845	32194.55
595.052	32169.79
595.259	32147.21
595.466	32120.61
595.673	32092.48
595.88	32071.72
596.088	32045.68
596.295	32020.1
596.502	32003.03
596.709	31975.35
596.915	31958.92
597.122	31940.35
597.329	31916.14
597.536	31891.23
597.743	31868.28
597.95	31833.75
598.157	31795.99
598.364	31755.66
598.571	31701.48
598.777	31643.32
598.984	31590.17
599.191	31523.77
599.398	31472.12
599.605	31411.34
599.811	31353.37
600.018	31290.46
600.225	31240.79
600.431	31190.23
600.638	31141.3
600.845	31109.95
601.052	31077.32
601.258	31044.57
601.465	31008.39
601.671	30949.34
601.878	30887.35
602.085	30809.85
602.291	30709.92
602.498	30593.17
602.704	30448.03
602.911	30296.5
603.117	30109.95
603.324	29909.52
603.53	29688.74
603.737	29459.61
603.943	29224.59
604.15	28972.95
604.356	28719.14
604.562	28470.81
604.769	28214.94
604.975	27964.19
605.181	27705.45
605.388	27447.79
605.594	27182.66
605.8	26917.68
606.007	26653.55
606.213	26391.08
606.419	26127.54
606.625	25858.7
606.832	25592.77
607.038	25323.75
607.244	25061.57
607.45	24788.7
607.656	24521.68
607.863	24256.01
608.069	23990.23
608.275	23724.7
608.481	23452.05
608.687	23184.95
608.893	22916.01
609.099	22650.43
609.305	22377.9
609.511	22099.45
609.717	21826.54
609.923	21537.28
610.129	21253.15
610.335	20967.23
610.541	20676.99
610.747	20383.21
610.953	20083.35
611.159	19794.14
611.365	19489.03
611.571	19184.01
611.776	18879.21
611.982	18571.03
612.188	18269.35
612.394	17961.83
612.6	17652.32
612.806	17341.23
613.011	17036.3
613.217	16730.59
613.423	16407.86
613.628	16102.52
613.834	15805.14
614.04	15507.41
614.246	15207.34
614.451	14919.94
614.657	14640.97
614.862	14372.7
615.068	14110.17
615.274	13846.08
615.479	13597.23
615.685	13351.01
615.89	13106.75
616.096	12863.66
616.301	12621.37
616.507	12383.59
616.712	12141.61
616.918	11888.08
617.123	11632.25
617.329	11371.75
617.534	11108.86
617.74	10844.32
617.945	10582.94
618.15	10300.06
618.356	9863.86
618.561	9068.68
618.766	8109.46
618.972	7119.63
619.177	6160.06
619.382	5223.23
619.588	4311.3
619.793	3770.68
619.998	3131.92
620.203	2368.07
620.408	1444.53
620.614	538.9
