Data from test1_MAYP1115451__24__10-17-17-431.txt Node

Date: Wed Jun 12 10:17:17 MDT 2024
User: Modes Lab
Spectrometer: MAYP111545
Trigger mode: 0
Integration Time (sec): 8.000000E-3
Scans to average: 5
Electric dark correction enabled: true
Nonlinearity correction enabled: false
Boxcar width: 5
XAxis mode: Wavelengths
Number of Pixels in Spectrum: 2068
>>>>>Begin Spectral Data<<<<<
165.214	164.4
165.449	164.38
165.683	172.33
165.918	181.21
166.152	186.89
166.387	191.74
166.621	123.72
166.856	162.72
167.09	181.22
167.325	204.82
167.559	220.63
167.794	235.07
168.028	242.11
168.263	243.38
168.497	243.27
168.732	244.83
168.966	246.43
169.2	247.29
169.435	248.78
169.669	250.12
169.903	252.49
170.138	253.25
170.372	253.85
170.606	255.91
170.841	258.18
171.075	259.42
171.309	260.47
171.544	261.54
171.778	263.67
172.012	265.72
172.246	267
172.48	267.6
172.715	270.52
172.949	272.32
173.183	273.91
173.417	275.78
173.651	277.47
173.885	279.23
174.119	279.65
174.354	279.89
174.588	279.58
174.822	280.43
175.056	280.8
175.29	280.23
175.524	280.23
175.758	280.52
175.992	280.62
176.226	280.32
176.46	280.18
176.694	282.23
176.928	283.49
177.162	284.27
177.396	284.62
177.63	285.14
177.864	286.65
178.097	287.72
178.331	287.67
178.565	287.83
178.799	289.16
179.033	289.96
179.267	289.69
179.5	289.76
179.734	290.49
179.968	291.42
180.202	292.43
180.436	293.82
180.669	295.07
180.903	296.58
181.137	298.07
181.371	299.63
181.604	300.05
181.838	300.96
182.072	302.6
182.305	304.47
182.539	305.07
182.772	305.78
183.006	306.51
183.24	306.8
183.473	309.96
183.707	311.72
183.94	311.63
184.174	313.56
184.408	314.2
184.641	315.42
184.875	315.56
185.108	317.72
185.342	320.09
185.575	321.14
185.808	322.89
186.042	322.47
186.275	321.76
186.509	323.29
186.742	324.36
186.976	326.34
187.209	327.52
187.442	328.82
187.676	329.58
187.909	330.2
188.142	331.29
188.376	332.43
188.609	333.32
188.842	335.63
189.076	337.78
189.309	340.38
189.542	341.96
189.775	343.25
190.009	346.49
190.242	348.23
190.475	350.27
190.708	353.03
190.941	354.54
191.174	356.78
191.408	359.2
191.641	360.74
191.874	361.8
192.107	364.23
192.34	365.12
192.573	365.09
192.806	366.58
193.039	367.67
193.272	368.34
193.505	369.38
193.738	371.71
193.971	372.2
194.204	374.32
194.437	375.14
194.67	375.71
194.903	378.98
195.136	382.03
195.369	384.51
195.602	386.92
195.835	389.52
196.068	393.31
196.301	394
196.533	396.31
196.766	396.96
196.999	399.62
197.232	402.54
197.465	404.05
197.698	405.34
197.93	407.32
198.163	409.25
198.396	411.94
198.629	413.49
198.861	415.32
199.094	417.83
199.327	420.54
199.559	423.34
199.792	425.25
200.025	426.87
200.257	428.52
200.49	430.16
200.723	432.12
200.955	433.65
201.188	436.02
201.42	438.78
201.653	441
201.886	444.05
202.118	445.94
202.351	448.18
202.583	450.85
202.816	454.25
203.048	456.82
203.281	458.69
203.513	460.42
203.745	462.71
203.978	465.16
204.21	467.82
204.443	469.31
204.675	470.47
204.907	472.83
205.14	475.29
205.372	476.51
205.605	479.45
205.837	483.09
206.069	484.54
206.302	485.92
206.534	487.32
206.766	489.49
206.998	491.45
207.231	493.38
207.463	495.02
207.695	497.29
207.927	498.91
208.159	499.29
208.392	500.09
208.624	504
208.856	506.36
209.088	509.31
209.32	511
209.552	512.4
209.784	515.63
210.017	518.65
210.249	520.87
210.481	523.51
210.713	526.65
210.945	530.27
211.177	531.11
211.409	534.34
211.641	535.32
211.873	537.03
212.105	539.34
212.337	540.76
212.569	542.09
212.801	543.72
213.033	546.27
213.264	547.8
213.496	548.11
213.728	549.16
213.96	549.18
214.192	552.76
214.424	554.54
214.656	556.74
214.887	558.98
215.119	560.62
215.351	562.25
215.583	563.51
215.815	565.85
216.046	567.91
216.278	571.02
216.51	573.71
216.741	574.22
216.973	576.07
217.205	577.11
217.436	579.45
217.668	581.74
217.9	584.49
218.131	584.83
218.363	587.34
218.595	588.25
218.826	589.23
219.058	590.65
219.289	592.11
219.521	593.58
219.752	596.07
219.984	595.83
220.215	595.83
220.447	597.02
220.678	599.12
220.91	598.03
221.141	599.38
221.373	600.18
221.604	600.92
221.836	602.67
222.067	603.07
222.298	603.92
222.53	605.98
222.761	607.29
222.993	605.92
223.224	607.11
223.455	609.07
223.686	609.65
223.918	610.85
224.149	611.54
224.38	610.92
224.612	610.98
224.843	612.82
225.074	612.43
225.305	613.74
225.536	615.87
225.768	614.8
225.999	615.94
226.23	617.16
226.461	617.87
226.692	617.89
226.923	618.89
227.155	622
227.386	620.62
227.617	621.6
227.848	621.31
228.079	621.56
228.31	623.16
228.541	622.74
228.772	621.98
229.003	622.62
229.234	622.91
229.465	623.05
229.696	621.96
229.927	621.52
230.158	620.34
230.389	619.45
230.62	620.32
230.85	619.6
231.081	619.2
231.312	620.4
231.543	619.96
231.774	619.89
232.005	620.49
232.236	619.83
232.466	620.92
232.697	621.54
232.928	622.03
233.159	620.29
233.389	620.96
233.62	620.76
233.851	620.4
234.082	619.49
234.312	620.25
234.543	619.34
234.774	619.51
235.004	619.47
235.235	620.2
235.466	620.74
235.696	621.18
235.927	621.11
236.157	622.47
236.388	622.22
236.618	622.02
236.849	620.67
237.08	621.74
237.31	621.85
237.541	620.54
237.771	620.52
238.002	619.22
238.232	619.51
238.463	619.11
238.693	617.27
238.923	616.98
239.154	617.32
239.384	618.12
239.615	616.96
239.845	615.87
240.075	615.42
240.306	613.49
240.536	613.67
240.766	612.29
240.997	612.47
241.227	613.14
241.457	611.76
241.687	610.85
241.918	609.43
242.148	607.94
242.378	607.03
242.608	607.47
242.839	608.09
243.069	607.2
243.299	607.11
243.529	607.38
243.759	606.18
243.989	606.83
244.22	606.05
244.45	607.58
244.68	608.07
244.91	608.62
245.14	608.03
245.37	607.87
245.6	607.74
245.83	607.2
246.06	605.49
246.29	605.36
246.52	605.09
246.75	605.34
246.98	603.32
247.21	602.8
247.44	601.4
247.67	600.42
247.9	599.29
248.13	599.8
248.359	598.74
248.589	598.36
248.819	597.49
249.049	597.03
249.279	596.56
249.509	595.76
249.738	594.45
249.968	594.05
250.198	594.07
250.428	594.29
250.657	592
250.887	592.52
251.117	591.65
251.347	590.62
251.576	590.07
251.806	588.67
252.036	589.07
252.265	589.12
252.495	588.76
252.725	587.23
252.954	586.78
253.184	586.27
253.413	584.71
253.643	584.87
253.873	584.47
254.102	583.63
254.332	583.63
254.561	581.85
254.791	581.83
255.02	580.49
255.25	581.18
255.479	580.12
255.708	581.52
255.938	580.87
256.167	579.76
256.397	579.32
256.626	580.14
256.856	579.82
257.085	578.87
257.314	577.98
257.544	578.71
257.773	577.05
258.002	576.74
258.232	575.27
258.461	574.94
258.69	575.02
258.919	573.98
259.149	571.49
259.378	571.02
259.607	571.11
259.836	569.72
260.065	568.78
260.295	569.29
260.524	568.11
260.753	566.12
260.982	565.92
261.211	565.38
261.44	564.98
261.669	564.45
261.899	564.02
262.128	562.63
262.357	563.6
262.586	562.71
262.815	561.72
263.044	561.32
263.273	564.02
263.502	563.11
263.731	561.34
263.96	561.07
264.189	560.34
264.418	559.42
264.646	559.58
264.875	556.94
265.104	555.74
265.333	554.8
265.562	553.23
265.791	550.03
266.02	548.83
266.249	549.18
266.477	547.71
266.706	546.51
266.935	545.31
267.164	544.23
267.393	544.47
267.621	543.62
267.85	543.11
268.079	542.18
268.307	541.54
268.536	540.56
268.765	538.6
268.993	538.62
269.222	538.94
269.451	537.71
269.679	537.78
269.908	537.34
270.137	537.23
270.365	536.4
270.594	536.32
270.822	535.74
271.051	536.96
271.279	539.76
271.508	539.05
271.736	539.76
271.965	540.89
272.193	542
272.422	542.54
272.65	542.72
272.879	543.34
273.107	544.09
273.336	543.23
273.564	541.72
273.792	538.43
274.021	537.78
274.249	536.98
274.477	535.63
274.706	533.54
274.934	531.38
275.162	529.6
275.391	528.71
275.619	527.22
275.847	526.65
276.075	525.34
276.304	524.94
276.532	523.67
276.76	520.78
276.988	520.72
277.216	519.22
277.445	518.58
277.673	518.25
277.901	518.45
278.129	517.91
278.357	517.85
278.585	517.34
278.813	516.65
279.041	516.98
279.269	517.58
279.497	516.2
279.725	516.25
279.954	516.43
280.182	517.23
280.41	514.89
280.637	513.62
280.865	512.89
281.093	512.8
281.321	511.72
281.549	511.6
281.777	510.63
282.005	509.91
282.233	509.42
282.461	508.49
282.689	507.78
282.916	508.14
283.144	507.45
283.372	506.83
283.6	507.43
283.828	506.11
284.055	506.16
284.283	506.29
284.511	505.49
284.739	504.98
284.966	504.22
285.194	502.49
285.422	500.43
285.649	500.98
285.877	499.38
286.105	497.69
286.332	499.94
286.56	498.58
286.788	498.29
287.015	499
287.243	497.87
287.47	497.78
287.698	497.82
287.925	498.85
288.153	498.38
288.381	498.4
288.608	497.4
288.836	495.63
289.063	495.32
289.29	494.45
289.518	494.29
289.745	493.96
289.973	493.65
290.2	493.45
290.428	492.05
290.655	491.29
290.882	491.42
291.11	491.85
291.337	490.14
291.564	488.4
291.792	487.11
292.019	485.02
292.246	484.16
292.473	482.36
292.701	480.87
292.928	480.05
293.155	479.2
293.382	479.31
293.61	477.98
293.837	478.65
294.064	478.76
294.291	477.67
294.518	478.03
294.745	477.52
294.972	477.56
295.2	477.91
295.427	478.11
295.654	477.58
295.881	476.65
296.108	476.32
296.335	475.51
296.562	474.98
296.789	476.07
297.016	474.91
297.243	474.18
297.47	474.36
297.697	473.69
297.924	472.14
298.151	471.05
298.378	469.98
298.604	469.38
298.831	467.74
299.058	467.2
299.285	465.11
299.512	465.09
299.739	464.58
299.966	463.62
300.192	462.72
300.419	462.76
300.646	461.71
300.873	461.52
301.099	461.83
301.326	462.71
301.553	461.8
301.78	463.43
302.006	462.43
302.233	462.58
302.46	462.36
302.686	461.58
302.913	460.92
303.14	462.12
303.366	462.23
303.593	462
303.819	459.96
304.046	459.27
304.272	457.72
304.499	458.25
304.725	458.43
304.952	456.76
305.179	457.09
305.405	457.65
305.631	457.42
305.858	456.2
306.084	454.74
306.311	455.82
306.537	457.27
306.764	457.34
306.99	456.22
307.216	455.69
307.443	456.29
307.669	455.56
307.895	454.58
308.122	453.87
308.348	454.34
308.574	454.4
308.801	455.27
309.027	454.62
309.253	452.94
309.479	452.36
309.706	452.36
309.932	451.67
310.158	451.03
310.384	450.67
310.61	451.25
310.837	450.56
311.063	450.22
311.289	449.25
311.515	447.94
311.741	448.65
311.967	448.98
312.193	448.56
312.419	448.31
312.645	449.18
312.871	449.05
313.097	449.05
313.323	449.29
313.549	449.63
313.775	450.23
314.001	450.42
314.227	449.82
314.453	450.2
314.679	449.43
314.905	451.07
315.131	451.45
315.357	452.92
315.583	452.36
315.809	451.94
316.034	452.63
316.26	451.65
316.486	452.58
316.712	453.92
316.938	453.74
317.163	454.98
317.389	455.16
317.615	455.23
317.841	455.27
318.066	455.65
318.292	458.11
318.518	459.31
318.743	460.31
318.969	460.49
319.195	462.29
319.42	463.22
319.646	464.65
319.872	464.47
320.097	466.62
320.323	466.72
320.548	468.58
320.774	469.27
320.999	469.4
321.225	471.25
321.45	473.51
321.676	473.4
321.901	475.82
322.127	477.09
322.352	479.74
322.578	481.2
322.803	482.98
323.029	484.49
323.254	485.56
323.479	487.16
323.705	487.78
323.93	488.76
324.155	490.49
324.381	491.69
324.606	492.71
324.831	494.25
325.057	494.25
325.282	497.11
325.507	498.58
325.732	500.31
325.958	502.36
326.183	505.14
326.408	507.83
326.633	509.58
326.858	512.02
327.084	514.4
327.309	517.49
327.534	520.63
327.759	523.25
327.984	526.43
328.209	529.38
328.434	531.56
328.659	535.29
328.884	539
329.109	543.09
329.334	546.22
329.559	551.03
329.784	554.22
330.009	558.09
330.234	561.76
330.459	566.07
330.684	570.02
330.909	575.8
331.134	578.92
331.359	581.92
331.584	585.58
331.809	589.11
332.034	592.34
332.259	596.49
332.483	600.43
332.708	604.69
332.933	608.23
333.158	611.96
333.383	616.02
333.607	621.43
333.832	626.98
334.057	632.14
334.282	636.98
334.506	641.8
334.731	647.8
334.956	653.6
335.18	657.65
335.405	663.23
335.63	669.83
335.854	674.85
336.079	679.4
336.303	683.58
336.528	690.23
336.753	696.36
336.977	702.49
337.202	707.29
337.426	714
337.651	720.83
337.875	727.42
338.1	732.82
338.324	740.42
338.549	747.23
338.773	755.74
338.997	762.72
339.222	771.56
339.446	778.76
339.671	786.51
339.895	793.82
340.119	800.56
340.344	808.56
340.568	816.58
340.792	823.92
341.017	833.71
341.241	840.83
341.465	848.18
341.689	854.63
341.914	863.42
342.138	869.98
342.362	877.83
342.586	886.4
342.811	894
343.035	901.32
343.259	907.83
343.483	914.47
343.707	923.25
343.931	931.51
344.155	940.58
344.38	948.89
344.604	960.58
344.828	968
345.052	977.89
345.276	987.87
345.5	998.02
345.724	1009.07
345.948	1018.34
346.172	1028.63
346.396	1038.09
346.62	1048.31
346.844	1057.63
347.068	1065.92
347.292	1077.32
347.515	1089.54
347.739	1100.6
347.963	1111.85
348.187	1122.4
348.411	1132.07
348.635	1141.47
348.859	1152.22
349.082	1163.05
349.306	1175.62
349.53	1187.11
349.754	1198.8
349.977	1206.6
350.201	1215.67
350.425	1226.49
350.649	1236.49
350.872	1247.91
351.096	1258.74
351.32	1269.96
351.543	1280.62
351.767	1290.14
351.99	1301.07
352.214	1311.47
352.438	1323.87
352.661	1335.36
352.885	1346.91
353.108	1359.18
353.332	1371.45
353.555	1384.45
353.779	1396.85
354.002	1409.09
354.226	1420.4
354.449	1431.85
354.673	1443.45
354.896	1455.42
355.12	1467.2
355.343	1479.16
355.566	1490.98
355.79	1502.63
356.013	1514.89
356.237	1526.31
356.46	1538.31
356.683	1550.74
356.907	1562.76
357.13	1574.38
357.353	1586.32
357.576	1598.83
357.8	1611.98
358.023	1624.4
358.246	1637.27
358.469	1649.49
358.693	1663.25
358.916	1676.74
359.139	1690.96
359.362	1701.63
359.585	1715.54
359.808	1729.38
360.031	1742.96
360.255	1756.98
360.478	1769.18
360.701	1781.94
360.924	1794.42
361.147	1807.18
361.37	1820.36
361.593	1830.96
361.816	1847.27
362.039	1859.65
362.262	1871.14
362.485	1883.71
362.708	1897.09
362.931	1911.2
363.154	1927.18
363.377	1939.29
363.599	1952.85
363.822	1965.38
364.045	1980.49
364.268	1994.8
364.491	2012.14
364.714	2028.14
364.936	2044.11
365.159	2057.14
365.382	2072.18
365.605	2087.11
365.828	2105.36
366.05	2121.85
366.273	2138.29
366.496	2155.11
366.718	2169.42
366.941	2181.62
367.164	2197.05
367.386	2209.74
367.609	2225.4
367.832	2242.51
368.054	2254.92
368.277	2269.45
368.5	2284.89
368.722	2300.22
368.945	2316.07
369.167	2332.82
369.39	2349.16
369.612	2364.65
369.835	2381.62
370.057	2397.78
370.28	2412.58
370.502	2432.76
370.725	2449.02
370.947	2464.27
371.169	2480.96
371.392	2501
371.614	2515.2
371.837	2532.62
372.059	2550.14
372.281	2568.16
372.504	2584.82
372.726	2601.54
372.948	2616.78
373.171	2635.45
373.393	2653.76
373.615	2669.65
373.837	2682.27
374.06	2700.69
374.282	2719.05
374.504	2737.09
374.726	2755.71
374.948	2773.56
375.17	2793.67
375.393	2811.74
375.615	2830.62
375.837	2849.47
376.059	2869.4
376.281	2889.36
376.503	2910.62
376.725	2929.09
376.947	2948.78
377.169	2966.65
377.391	2987.78
377.613	3009.03
377.835	3033.22
378.057	3051.83
378.279	3070.07
378.501	3087.76
378.723	3109.85
378.945	3129.74
379.167	3152.51
379.389	3174.54
379.611	3198.12
379.833	3220.63
380.054	3242.25
380.276	3261.54
380.498	3285.42
380.72	3310.6
380.942	3336.43
381.163	3357.92
381.385	3382.96
381.607	3406.32
381.829	3427.6
382.05	3455.12
382.272	3479.49
382.494	3504.32
382.716	3529.62
382.937	3553.89
383.159	3577.94
383.381	3606
383.602	3635.4
383.824	3663.4
384.045	3689.11
384.267	3716.74
384.488	3740.8
384.71	3765.71
384.932	3791.87
385.153	3816.72
385.375	3841.07
385.596	3867.91
385.818	3896.4
386.039	3921.4
386.261	3945.62
386.482	3975.12
386.703	4003.22
386.925	4030.2
387.146	4060.67
387.368	4088.63
387.589	4119.07
387.81	4150.87
388.032	4183.63
388.253	4213.51
388.474	4243.69
388.696	4273.36
388.917	4301.47
389.138	4330.8
389.359	4362.42
389.581	4389.6
389.802	4420.11
390.023	4448.56
390.244	4475.62
390.465	4503.91
390.687	4531.27
390.908	4562.25
391.129	4593.03
391.35	4623.45
391.571	4655.07
391.792	4682.78
392.013	4712.07
392.234	4742.8
392.455	4774.4
392.677	4808.94
392.898	4838.65
393.119	4868.18
393.34	4899.45
393.561	4929.11
393.782	4958.63
394.003	4990.85
394.223	5020.8
394.444	5053.47
394.665	5088.16
394.886	5124.4
395.107	5154.69
395.328	5187.6
395.549	5218.62
395.77	5251.02
395.99	5284.38
396.211	5322.16
396.432	5353.18
396.653	5389.45
396.874	5425.18
397.094	5455.14
397.315	5484.74
397.536	5516.58
397.757	5550.98
397.977	5587.27
398.198	5617.31
398.419	5651.23
398.639	5683.38
398.86	5717.36
399.081	5753.12
399.301	5787.62
399.522	5820.11
399.742	5854.67
399.963	5890.82
400.184	5923.82
400.404	5960.2
400.625	5997.82
400.845	6031.09
401.066	6065.56
401.286	6099.8
401.507	6131.76
401.727	6166.63
401.948	6207.12
402.168	6237.2
402.388	6273.91
402.609	6309.85
402.829	6342.63
403.05	6376.23
403.27	6411.11
403.49	6443.82
403.711	6480.09
403.931	6515.31
404.151	6545.83
404.372	6578.16
404.592	6615.82
404.812	6646.12
405.032	6676.98
405.253	6707.87
405.473	6741.69
405.693	6776.87
405.913	6813.12
406.133	6848.22
406.353	6886.4
406.574	6921.87
406.794	6952.87
407.014	6986.72
407.234	7026.12
407.454	7063.87
407.674	7103.43
407.894	7138.11
408.114	7174.78
408.334	7209.18
408.554	7246.02
408.774	7281.51
408.994	7318.38
409.214	7359.02
409.434	7399.89
409.654	7431.78
409.874	7469.32
410.094	7505.05
410.314	7547.6
410.534	7587.23
410.754	7627.36
410.974	7663.98
411.193	7700.8
411.413	7742.27
411.633	7775.03
411.853	7814.63
412.073	7856.29
412.292	7891.54
412.512	7932.54
412.732	7969.12
412.952	8006.16
413.171	8042.54
413.391	8079.74
413.611	8120.42
413.831	8161.8
414.05	8207.07
414.27	8252.02
414.489	8296.47
414.709	8343.6
414.929	8385.07
415.148	8427.78
415.368	8472.54
415.587	8515.65
415.807	8561.51
416.026	8597.87
416.246	8635.25
416.465	8676.98
416.685	8717.92
416.904	8759.78
417.124	8801.43
417.343	8844.47
417.563	8889.62
417.782	8935.56
418.002	8985.76
418.221	9030.45
418.44	9078.92
418.66	9126.82
418.879	9171.78
419.098	9209.92
419.318	9255.03
419.537	9298.03
419.756	9342.34
419.976	9387.16
420.195	9428.02
420.414	9467.29
420.633	9512.29
420.853	9556.71
421.072	9598.76
421.291	9641.76
421.51	9687.85
421.729	9727.22
421.948	9779.25
422.168	9823.42
422.387	9866.94
422.606	9907.4
422.825	9953.23
423.044	9995.96
423.263	10038.98
423.482	10084.85
423.701	10130.91
423.92	10175.49
424.139	10226.87
424.358	10265.05
424.577	10313.14
424.796	10358.58
425.015	10409.92
425.234	10451.91
425.453	10499.07
425.672	10550.96
425.891	10597.71
426.11	10637
426.328	10685.74
426.547	10732.74
426.766	10779.27
426.985	10819.76
427.204	10864.71
427.422	10908.96
427.641	10955.91
427.86	11005.87
428.079	11052.31
428.297	11101.34
428.516	11156.25
428.735	11206.29
428.954	11250.45
429.172	11298.87
429.391	11351.72
429.61	11398.29
429.828	11444.83
430.047	11498.62
430.265	11539.98
430.484	11584.22
430.703	11624.65
430.921	11666.6
431.14	11703.31
431.358	11752.25
431.577	11799.94
431.795	11847.65
432.014	11894
432.232	11945.63
432.451	11991.2
432.669	12042
432.887	12089.91
433.106	12138.96
433.324	12190.65
433.543	12245.71
433.761	12290.92
433.979	12336.96
434.198	12379.67
434.416	12431.34
434.634	12475.14
434.853	12520.29
435.071	12572.27
435.289	12619.07
435.507	12665.89
435.726	12712.51
435.944	12760.47
436.162	12808.62
436.38	12853.43
436.598	12901.51
436.817	12941.94
437.035	12987.92
437.253	13032.98
437.471	13071.56
437.689	13114.69
437.907	13168.31
438.125	13215.14
438.343	13255.72
438.561	13306.6
438.78	13353.49
438.998	13404.72
439.216	13454.47
439.434	13502.63
439.652	13545.6
439.869	13592.78
440.087	13645.98
440.305	13694.07
440.523	13747.16
440.741	13800.47
440.959	13846.27
441.177	13901.16
441.395	13947.54
441.613	13999.03
441.831	14047.71
442.048	14099.89
442.266	14145.85
442.484	14186.56
442.702	14228.29
442.919	14272.67
443.137	14319.74
443.355	14364.74
443.573	14408.12
443.79	14456.05
444.008	14503.67
444.226	14550.49
444.443	14605.47
444.661	14658.54
444.879	14708.6
445.096	14761.25
445.314	14811.18
445.532	14861.76
445.749	14916.16
445.967	14962.69
446.184	15011.47
446.402	15053
446.619	15103.47
446.837	15142.23
447.054	15188.6
447.272	15238.62
447.489	15279.22
447.707	15324.92
447.924	15376.52
448.141	15418.34
448.359	15468.49
448.576	15518.05
448.794	15576.58
449.011	15627.27
449.228	15683.2
449.446	15731.83
449.663	15784.23
449.88	15837.42
450.098	15885
450.315	15931.83
450.532	15977.87
450.749	16031.2
450.967	16075.56
451.184	16123.71
451.401	16173.07
451.618	16217.11
451.835	16264.22
452.052	16314.89
452.27	16359.14
452.487	16402.51
452.704	16442.16
452.921	16491.92
453.138	16532.58
453.355	16583.05
453.572	16631.18
453.789	16671.89
454.006	16719.38
454.223	16766.42
454.44	16812.8
454.657	16864.36
454.874	16915.51
455.091	16964.91
455.308	17011.89
455.525	17061.05
455.742	17105.31
455.959	17146.09
456.176	17196.71
456.393	17242.69
456.609	17296.56
456.826	17335.78
457.043	17382.89
457.26	17430.65
457.477	17480.34
457.693	17522.54
457.91	17566.23
458.127	17609.31
458.344	17654.34
458.56	17702.36
458.777	17744.6
458.994	17772.98
459.21	17815.09
459.427	17844.31
459.644	17871.31
459.86	17903.83
460.077	17941.76
460.294	17980.65
460.51	18019.18
460.727	18060.32
460.943	18084.82
461.16	18123.85
461.376	18167.38
461.593	18201.12
461.809	18245.34
462.026	18291.4
462.242	18328.76
462.459	18370.67
462.675	18406.29
462.892	18446.2
463.108	18475.89
463.324	18521.45
463.541	18563.54
463.757	18609.49
463.974	18658.36
464.19	18704.42
464.406	18747.94
464.623	18801.31
464.839	18842.36
465.055	18891.11
465.271	18941.22
465.488	18992.71
465.704	19039.52
465.92	19091.8
466.136	19139.89
466.353	19186.67
466.569	19238.71
466.785	19296.32
467.001	19341.03
467.217	19395.91
467.433	19451.18
467.649	19509.85
467.865	19568.52
468.082	19628.02
468.298	19686.76
468.514	19740.32
468.73	19801.76
468.946	19866.11
469.162	19931.43
469.378	19995
469.594	20058.42
469.81	20121.83
470.026	20179.16
470.242	20240.54
470.457	20310.85
470.673	20369.92
470.889	20438.62
471.105	20501.56
471.321	20566.45
471.537	20627.14
471.753	20692.72
471.968	20761.14
472.184	20839.03
472.4	20911.03
472.616	20983.94
472.832	21048.05
473.047	21129.09
473.263	21204.49
473.479	21278.91
473.694	21362.92
473.91	21440.07
474.126	21515.65
474.341	21591.38
474.557	21654.23
474.773	21718.05
474.988	21789.52
475.204	21865.14
475.42	21935.72
475.635	22005.56
475.851	22076.31
476.066	22137.34
476.282	22200.56
476.497	22272.23
476.713	22346.58
476.928	22421.63
477.144	22499.98
477.359	22568.34
477.575	22631.4
477.79	22689.05
478.005	22755.67
478.221	22816.63
478.436	22871.98
478.651	22937.74
478.867	22995.14
479.082	23050.91
479.297	23098.49
479.513	23150.43
479.728	23196.67
479.943	23249.92
480.159	23307.65
480.374	23357.65
480.589	23409.36
480.804	23463.14
481.019	23508.2
481.235	23559.07
481.45	23606.23
481.665	23654.05
481.88	23703.11
482.095	23764.27
482.31	23821.36
482.525	23866.54
482.741	23914.69
482.956	23963.27
483.171	24009.43
483.386	24056.29
483.601	24106.23
483.816	24149.78
484.031	24200.12
484.246	24235.94
484.461	24270.31
484.676	24316.62
484.891	24355.8
485.105	24398.72
485.32	24443.18
485.535	24486.54
485.75	24535.23
485.965	24578.14
486.18	24629.22
486.395	24667.38
486.609	24719
486.824	24762.54
487.039	24793.4
487.254	24829.49
487.469	24869.07
487.683	24914.11
487.898	24957.92
488.113	24995.4
488.327	25032.27
488.542	25068.49
488.757	25110.03
488.972	25149.91
489.186	25187.42
489.401	25227.54
489.615	25272.36
489.83	25312.07
490.045	25346.05
490.259	25375.16
490.474	25403.11
490.688	25438.25
490.903	25459.52
491.117	25493.03
491.332	25519.22
491.546	25555.38
491.761	25581.38
491.975	25614.91
492.19	25642.16
492.404	25670.63
492.618	25706.29
492.833	25736.45
493.047	25762.49
493.262	25790.58
493.476	25828.43
493.69	25856.22
493.905	25887.42
494.119	25915.05
494.333	25935.76
494.547	25962.6
494.762	25985.47
494.976	26005.51
495.19	26037.72
495.404	26067.85
495.619	26104.87
495.833	26123.76
496.047	26149.42
496.261	26168.96
496.475	26187.83
496.689	26201.8
496.903	26210.47
497.117	26222.47
497.332	26220.16
497.546	26216.6
497.76	26202.62
497.974	26184.98
498.188	26175.63
498.402	26164.62
498.616	26148.87
498.83	26140.98
499.044	26135.07
499.258	26135.45
499.472	26132.85
499.685	26138.67
499.899	26136.32
500.113	26150.65
500.327	26169.02
500.541	26181.22
500.755	26193.72
500.969	26210.89
501.183	26232
501.396	26256.18
501.61	26272.12
501.824	26291
502.038	26320.56
502.251	26350.05
502.465	26367.96
502.679	26382.94
502.892	26394.96
503.106	26412.4
503.32	26425.85
503.533	26442.18
503.747	26465.8
503.961	26488.98
504.174	26512.14
504.388	26539.82
504.602	26564.65
504.815	26593.94
505.029	26634.52
505.242	26678.91
505.456	26730.16
505.669	26783.18
505.883	26833.14
506.096	26874.14
506.31	26921.78
506.523	26970.56
506.736	27009.82
506.95	27066.71
507.163	27128.2
507.377	27184.2
507.59	27242.89
507.803	27298.85
508.017	27355.98
508.23	27417.32
508.443	27482.65
508.657	27551.82
508.87	27622.94
509.083	27690.65
509.296	27766.91
509.51	27837.31
509.723	27915.69
509.936	27993.2
510.149	28074.22
510.363	28156.82
510.576	28241.27
510.789	28334.29
511.002	28427.18
511.215	28520.49
511.428	28629.67
511.641	28727.82
511.854	28832.67
512.067	28926.38
512.28	29028.14
512.493	29130.05
512.707	29240.63
512.92	29339.34
513.132	29437.47
513.345	29536.76
513.558	29642.22
513.771	29746.47
513.984	29842.67
514.197	29938.87
514.41	30050.25
514.623	30161.94
514.836	30266.38
515.049	30377.49
515.262	30490.63
515.474	30599.09
515.687	30705.54
515.9	30805.85
516.113	30900.23
516.325	30999.85
516.538	31102.16
516.751	31194.45
516.964	31274.96
517.176	31364.43
517.389	31442.54
517.602	31520.67
517.814	31595
518.027	31678.71
518.24	31759.45
518.452	31837.91
518.665	31918.16
518.877	31991.27
519.09	32053.6
519.303	32126.47
519.515	32198.71
519.728	32265.09
519.94	32336.27
520.153	32406.34
520.365	32460.82
520.578	32522.03
520.79	32584.71
521.002	32651.85
521.215	32708.67
521.427	32772.16
521.64	32834.74
521.852	32884.16
522.064	32929.49
522.277	32975.74
522.489	33030.69
522.701	33088.31
522.914	33140.27
523.126	33184.27
523.338	33225.38
523.551	33268.78
523.763	33313.23
523.975	33353.76
524.187	33401.38
524.399	33452.96
524.612	33505.58
524.824	33541.4
525.036	33579.52
525.248	33616.49
525.46	33661.52
525.672	33706.82
525.884	33756.96
526.096	33795.02
526.308	33827.58
526.521	33854.42
526.733	33879.71
526.945	33908.22
527.157	33945.56
527.369	33979.76
527.581	34019.78
527.793	34048.16
528.004	34070.72
528.216	34090.51
528.428	34121.98
528.64	34156.65
528.852	34190.8
529.064	34227.87
529.276	34250.31
529.488	34278.07
529.699	34304.71
529.911	34326.8
530.123	34351.07
530.335	34377.67
530.547	34407.89
530.758	34431.82
530.97	34456.98
531.182	34492.67
531.393	34523.32
531.605	34563.72
531.817	34606.89
532.029	34643.31
532.24	34676.63
532.452	34713.87
532.663	34742.18
532.875	34761.42
533.087	34792.58
533.298	34807.94
533.51	34823.89
533.721	34848.16
533.933	34867.16
534.144	34874.02
534.356	34887.38
534.567	34891.8
534.779	34903.92
534.99	34919.58
535.202	34942.45
535.413	34956.71
535.624	34981.49
535.836	35003.92
536.047	35008.45
536.259	35018.82
536.47	35023.22
536.681	35038.52
536.893	35050.42
537.104	35058.05
537.315	35070.4
537.526	35087.71
537.738	35106.16
537.949	35128.16
538.16	35139.32
538.371	35167.16
538.582	35184.03
538.794	35208.96
539.005	35228.29
539.216	35257.23
539.427	35280.6
539.638	35301.49
539.849	35302.76
540.06	35315.47
540.272	35322.65
540.483	35336.49
540.694	35344.69
540.905	35354.2
541.116	35357.74
541.327	35371.74
541.538	35382.2
541.749	35380.38
541.96	35387.96
542.17	35413.23
542.381	35417.14
542.592	35420.96
542.803	35428.94
543.014	35442.05
543.225	35451.23
543.436	35464.83
543.647	35466.27
543.857	35474.87
544.068	35493.78
544.279	35505.62
544.49	35509.76
544.701	35519.91
544.911	35540.6
545.122	35551.56
545.333	35548.42
545.543	35556.91
545.754	35568.96
545.965	35570.38
546.175	35576.2
546.386	35580.78
546.597	35589.51
546.807	35604.31
547.018	35606.94
547.229	35609.98
547.439	35616.51
547.65	35624.85
547.86	35632.14
548.071	35629.71
548.281	35645.8
548.492	35658.58
548.702	35664.94
548.913	35661.11
549.123	35652.29
549.333	35670.54
549.544	35678.51
549.754	35682.09
549.965	35688.34
550.175	35696.4
550.385	35714.92
550.596	35713.54
550.806	35718.31
551.016	35722.82
551.227	35731.92
551.437	35742.43
551.647	35744.58
551.857	35744.36
552.068	35752.11
552.278	35770.2
552.488	35778.31
552.698	35788.29
552.908	35790.31
553.119	35783.94
553.329	35790.42
553.539	35793.07
553.749	35795.36
553.959	35792.14
554.169	35781.85
554.379	35774.78
554.589	35764.12
554.799	35760.94
555.009	35751.65
555.219	35753.27
555.429	35752.27
555.639	35747.02
555.849	35736.96
556.059	35727.22
556.269	35732.76
556.479	35741.58
556.689	35737.49
556.899	35744.58
557.109	35744.65
557.319	35734.58
557.528	35737.09
557.738	35726.71
557.948	35716.67
558.158	35713.91
558.368	35717.03
558.577	35703.11
558.787	35695.2
558.997	35700.31
559.207	35677.63
559.416	35663.2
559.626	35651.49
559.836	35629.78
560.045	35634.23
560.255	35635.23
560.465	35633.16
560.674	35626.29
560.884	35620.52
561.093	35607.38
561.303	35593.49
561.512	35592.51
561.722	35580.34
561.932	35579.85
562.141	35584.23
562.351	35575.52
562.56	35564.02
562.769	35562.54
562.979	35557.56
563.188	35558.47
563.398	35559.56
563.607	35560.36
563.817	35562.94
564.026	35567.85
564.235	35557.31
564.445	35544.36
564.654	35534.02
564.863	35527.4
565.073	35512.94
565.282	35497.2
565.491	35477.42
565.7	35465.31
565.91	35441.62
566.119	35415.8
566.328	35393.6
566.537	35373.67
566.746	35359.69
566.956	35341.38
567.165	35333.72
567.374	35320.63
567.583	35309.54
567.792	35293.23
568.001	35272.11
568.21	35250.8
568.419	35228.45
568.628	35209.89
568.837	35195.54
569.046	35173.47
569.255	35151.42
569.464	35111.96
569.673	35077.85
569.882	35048.11
570.091	35025.16
570.3	35004.49
570.509	34984.71
570.718	34968.52
570.927	34954.52
571.135	34940.29
571.344	34927.8
571.553	34921.43
571.762	34924.56
571.971	34919.52
572.18	34903.6
572.388	34895.83
572.597	34873.05
572.806	34855.87
573.014	34835.91
573.223	34805.03
573.432	34764.89
573.641	34739.07
573.849	34715.87
574.058	34684.43
574.266	34658.89
574.475	34634.82
574.684	34610.16
574.892	34596.56
575.101	34573.65
575.309	34558.22
575.518	34546.98
575.726	34536.89
575.935	34516.43
576.143	34499.98
576.352	34479.23
576.56	34464.14
576.769	34453.83
576.977	34435.12
577.186	34406.54
577.394	34383.16
577.602	34358.03
577.811	34342.22
578.019	34330.27
578.228	34311.98
578.436	34280.23
578.644	34257.25
578.852	34227.03
579.061	34199.67
579.269	34171.52
579.477	34158.96
579.685	34140.85
579.894	34116.54
580.102	34086.76
580.31	34064.83
580.518	34042.85
580.726	34020.71
580.935	34004.18
581.143	33985.09
581.351	33961.05
581.559	33934.82
581.767	33902.42
581.975	33888.14
582.183	33864.51
582.391	33842.65
582.599	33816.43
582.807	33791.03
583.015	33761.14
583.223	33728.56
583.431	33700.52
583.639	33663.94
583.847	33641.43
584.055	33620.16
584.263	33587.36
584.471	33561.45
584.678	33533.91
584.886	33507.98
585.094	33487.34
585.302	33468.8
585.51	33451.4
585.718	33429.29
585.925	33418.56
586.133	33403.34
586.341	33377.22
586.549	33354.83
586.756	33324.69
586.964	33300.2
587.172	33271.23
587.379	33240.42
587.587	33209.22
587.795	33183.29
588.002	33158.56
588.21	33131.8
588.417	33098.98
588.625	33073.32
588.833	33046.98
589.04	33028.78
589.248	33001.89
589.455	32983.11
589.663	32965.91
589.87	32932.62
590.078	32906.76
590.285	32882.22
590.492	32853
590.7	32828.31
590.907	32802.85
591.115	32767.12
591.322	32738.76
591.529	32712.49
591.737	32685.58
591.944	32641.63
592.151	32623.47
592.359	32590.25
592.566	32553.18
592.773	32525.47
592.981	32487.22
593.188	32452.14
593.395	32429.38
593.602	32396.18
593.809	32359.18
594.017	32328.51
594.224	32307.14
594.431	32280.92
594.638	32246.72
594.845	32215.32
595.052	32189.38
595.259	32171.09
595.466	32147.03
595.673	32120.36
595.88	32101.2
596.088	32083.31
596.295	32055.67
596.502	32020.83
596.709	31998.6
596.915	31971.47
597.122	31949.67
597.329	31924.45
597.536	31887.69
597.743	31858.49
597.95	31828.2
598.157	31790.51
598.364	31742.02
598.571	31693.22
598.777	31645.87
598.984	31577.03
599.191	31522.07
599.398	31467
599.605	31408.62
599.811	31357.91
600.018	31306.85
600.225	31255.32
600.431	31200.03
600.638	31154.18
600.845	31120.4
601.052	31085.78
601.258	31058.09
601.465	31017.98
601.671	30959.82
601.878	30882.62
602.085	30788.62
602.291	30682
602.498	30560.91
602.704	30417.96
602.911	30261.92
603.117	30082.58
603.324	29877.56
603.53	29665.6
603.737	29440.12
603.943	29209.56
604.15	28970.98
604.356	28735.6
604.562	28488.29
604.769	28230.49
604.975	27982.76
605.181	27722.54
605.388	27457.18
605.594	27201.27
605.8	26935.14
606.007	26671.34
606.213	26397.45
606.419	26139.11
606.625	25864.71
606.832	25595.92
607.038	25335.94
607.244	25067.56
607.45	24805.78
607.656	24536.98
607.863	24276.87
608.069	24006.38
608.275	23742.71
608.481	23484.07
608.687	23207.29
608.893	22934.27
609.099	22657.91
609.305	22387.09
609.511	22108.58
609.717	21829.65
609.923	21549.03
610.129	21256
610.335	20970.07
610.541	20677.78
610.747	20376.98
610.953	20085.62
611.159	19799.87
611.365	19500.92
611.571	19190.58
611.776	18887.29
611.982	18581.16
612.188	18275.96
612.394	17969.32
612.6	17654.36
612.806	17338.36
613.011	17034.4
613.217	16721.96
613.423	16404.83
613.628	16101.78
613.834	15799.83
614.04	15508.51
614.246	15215.89
614.451	14927.25
614.657	14653.96
614.862	14387.07
615.068	14123.62
615.274	13860.03
615.479	13603.14
615.685	13359.16
615.89	13112.62
616.096	12866.4
616.301	12618.63
616.507	12370.31
616.712	12124.6
616.918	11868.56
617.123	11616.16
617.329	11357.91
617.534	11094.25
617.74	10833.56
617.945	10565.65
618.15	10286.76
618.356	9853.51
618.561	9060.25
618.766	8103.45
618.972	7114.67
619.177	6152.72
619.382	5213.78
619.588	4303.43
619.793	3764.15
619.998	3129.21
620.203	2365.11
620.408	1443.29
620.614	538.3
