Data from test1_MAYP1115451__72__10-17-33-727.txt Node

Date: Wed Jun 12 10:17:33 MDT 2024
User: Modes Lab
Spectrometer: MAYP111545
Trigger mode: 0
Integration Time (sec): 8.000000E-3
Scans to average: 5
Electric dark correction enabled: true
Nonlinearity correction enabled: false
Boxcar width: 5
XAxis mode: Wavelengths
Number of Pixels in Spectrum: 2068
>>>>>Begin Spectral Data<<<<<
165.214	164.43
165.449	164.5
165.683	173.37
165.918	182.78
166.152	189.59
166.387	195.3
166.621	127.28
166.856	165.54
167.09	184.59
167.325	207.76
167.559	223.68
167.794	237.41
168.028	244.9
168.263	246.25
168.497	245.9
168.732	246.59
168.966	247.23
169.2	247.47
169.435	249.38
169.669	249.83
169.903	251.39
170.138	253.94
170.372	256.12
170.606	257.79
170.841	259.21
171.075	260.47
171.309	261.72
171.544	262.32
171.778	265.05
172.012	266.27
172.246	268.94
172.48	271.58
172.715	273.63
172.949	276.07
173.183	278.03
173.417	278.98
173.651	280.47
173.885	281.61
174.119	282.81
174.354	282.94
174.588	282.94
174.822	283.72
175.056	282.78
175.29	282.16
175.524	281.16
175.758	280.39
175.992	281.5
176.226	281.59
176.46	281.27
176.694	282.87
176.928	284.47
177.162	286.05
177.396	286.05
177.63	287.99
177.864	289.21
178.097	290.54
178.331	291.76
178.565	292.08
178.799	293.3
179.033	294.05
179.267	293.48
179.5	293.76
179.734	294.21
179.968	295.92
180.202	296.61
180.436	297.3
180.669	297.05
180.903	298.27
181.137	300.34
181.371	301.58
181.604	302.94
181.838	305.3
182.072	307.1
182.305	308.74
182.539	309.18
182.772	309.94
183.006	311.34
183.24	312.76
183.473	315.87
183.707	316.58
183.94	316.63
184.174	318.25
184.408	317.74
184.641	318.85
184.875	319.96
185.108	322.63
185.342	324.07
185.575	325.68
185.808	328.14
186.042	327.39
186.275	328.74
186.509	330.27
186.742	331.38
186.976	333.79
187.209	333.43
187.442	334.85
187.676	335.18
187.909	335.05
188.142	335.79
188.376	335.38
188.609	336.63
188.842	337.16
189.076	339.14
189.309	341.1
189.542	342.47
189.775	345.58
190.009	347.78
190.242	348.54
190.475	350.92
190.708	353.03
190.941	355.25
191.174	356.52
191.408	357.87
191.641	359.39
191.874	361.34
192.107	364.14
192.34	365.45
192.573	365.94
192.806	369.01
193.039	371.12
193.272	372.25
193.505	374.32
193.738	377.16
193.971	379.98
194.204	381.61
194.437	382.74
194.67	383.9
194.903	385.94
195.136	387.67
195.369	388.14
195.602	389.61
195.835	393.16
196.068	395.74
196.301	397.16
196.533	399.47
196.766	401.92
196.999	404.14
197.232	405.76
197.465	407.25
197.698	410.36
197.93	413.14
198.163	415.78
198.396	417.18
198.629	418.99
198.861	421.23
199.094	422.63
199.327	424.58
199.559	426.25
199.792	429.41
200.025	431.81
200.257	432.85
200.49	436.01
200.723	437.85
200.955	439.32
201.188	441.41
201.42	443.27
201.653	446.16
201.886	447.52
202.118	450.47
202.351	451.88
202.583	453.87
202.816	456.43
203.048	458.21
203.281	460.87
203.513	462.87
203.745	466.21
203.978	467.9
204.21	468.99
204.443	471.72
204.675	473.67
204.907	475.36
205.14	479.07
205.372	481.68
205.605	482.61
205.837	484.52
206.069	486.96
206.302	487.21
206.534	489.56
206.766	491.79
206.998	494.25
207.231	496.27
207.463	498.81
207.695	500.34
207.927	502.48
208.159	505.88
208.392	507.67
208.624	510.25
208.856	511.94
209.088	515.08
209.32	517.74
209.552	519.76
209.784	522.48
210.017	524.45
210.249	524.83
210.481	526.3
210.713	527.36
210.945	530.36
211.177	531.92
211.409	534.36
211.641	535.81
211.873	538.48
212.105	541.39
212.337	542.36
212.569	543.67
212.801	546.36
213.033	549.56
213.264	551.23
213.496	552.25
213.728	553.98
213.96	556.83
214.192	558.1
214.424	559.43
214.656	559.58
214.887	561.78
215.119	565.08
215.351	566.08
215.583	567.12
215.815	569.32
216.046	571.27
216.278	573.34
216.51	575.07
216.741	577.59
216.973	579.56
217.205	582.32
217.436	582.88
217.668	585.03
217.9	586.96
218.131	586.58
218.363	588.14
218.595	589.38
218.826	588.58
219.058	589.52
219.289	590.67
219.521	591.12
219.752	591.36
219.984	591.88
220.215	591.19
220.447	592.87
220.678	594.5
220.91	595.07
221.141	595.9
221.373	599.83
221.604	600.52
221.836	601.88
222.067	604.21
222.298	605.1
222.53	607.41
222.761	609.27
222.993	609.1
223.224	611.18
223.455	612.45
223.686	613.52
223.918	612.7
224.149	613.56
224.38	613.72
224.612	612.83
224.843	614.61
225.074	614.81
225.305	614.65
225.536	616.54
225.768	616.5
225.999	617.16
226.23	617.12
226.461	616.41
226.692	618.14
226.923	619.32
227.155	620.79
227.386	621.3
227.617	621.72
227.848	623.12
228.079	623.58
228.31	625.05
228.541	625.36
228.772	626.34
229.003	627.92
229.234	627.36
229.465	626.7
229.696	624.43
229.927	622.43
230.158	622.79
230.389	621.96
230.62	622.5
230.85	622.32
231.081	622.21
231.312	621.87
231.543	622.25
231.774	622.47
232.005	622.94
232.236	624.76
232.466	626.58
232.697	627.16
232.928	625.67
233.159	625.83
233.389	625.61
233.62	625.68
233.851	626.39
234.082	625.79
234.312	625.56
234.543	625.03
234.774	624.38
235.004	623.14
235.235	623.18
235.466	625.85
235.696	624.94
235.927	623.85
236.157	622.99
236.388	621.87
236.618	622.67
236.849	622.48
237.08	622.41
237.31	622.83
237.541	622.28
237.771	621.79
238.002	619.74
238.232	618.9
238.463	620.1
238.693	620.34
238.923	620.1
239.154	618.94
239.384	617.68
239.615	618.1
239.845	617.78
240.075	618.65
240.306	618.07
240.536	619.76
240.766	619.12
240.997	618.01
241.227	616.83
241.457	616.25
241.687	616.39
241.918	617.88
242.148	616.7
242.378	615.28
242.608	614.78
242.839	613.67
243.069	611.7
243.299	612.32
243.529	612.48
243.759	612.18
243.989	612.63
244.22	612.41
244.45	611.65
244.68	610.25
244.91	611.48
245.14	609.72
245.37	610.14
245.6	610.16
245.83	608.85
246.06	607.72
246.29	609.41
246.52	608.7
246.75	608.67
246.98	606.98
247.21	607.16
247.44	605.7
247.67	605.92
247.9	605.23
248.13	603.79
248.359	603.74
248.589	603.05
248.819	600.74
249.049	599.59
249.279	598.7
249.509	598.19
249.738	597.67
249.968	597.14
250.198	596.28
250.428	595.63
250.657	595.12
250.887	593.52
251.117	594.07
251.347	592.88
251.576	592.41
251.806	590.74
252.036	589.78
252.265	589.83
252.495	588.74
252.725	588.99
252.954	588.7
253.184	588.38
253.413	589.28
253.643	588.05
253.873	588.85
254.102	588.5
254.332	588.27
254.561	588.32
254.791	587.85
255.02	587.79
255.25	587.27
255.479	586.38
255.708	586.01
255.938	585.16
256.167	584.58
256.397	583.28
256.626	582.45
256.856	582.83
257.085	581.81
257.314	582.34
257.544	582.7
257.773	581.47
258.002	580.27
258.232	579.56
258.461	577.87
258.69	576.43
258.919	576.52
259.149	575.21
259.378	573.14
259.607	571.9
259.836	569.88
260.065	568.23
260.295	568.41
260.524	568.63
260.753	568.78
260.982	568.48
261.211	568.76
261.44	567.54
261.669	567.1
261.899	567.48
262.128	568.23
262.357	566.3
262.586	565.65
262.815	565.16
263.044	564.45
263.273	565.38
263.502	564.28
263.731	563.85
263.96	562.67
264.189	562.68
264.418	561.5
264.646	559.5
264.875	559.43
265.104	558.85
265.333	556.92
265.562	556.1
265.791	553.36
266.02	553.63
266.249	551.39
266.477	551.14
266.706	550.18
266.935	549.32
267.164	549.08
267.393	548.96
267.621	546.54
267.85	545.45
268.079	545.05
268.307	543.45
268.536	542.87
268.765	541.81
268.993	541.25
269.222	540.39
269.451	540.32
269.679	540.03
269.908	538.7
270.137	538.87
270.365	539.41
270.594	539.7
270.822	540.56
271.051	539.94
271.279	541.38
271.508	541.39
271.736	541.38
271.965	540.48
272.193	541.43
272.422	543.18
272.65	543.41
272.879	543.67
273.107	542.7
273.336	541.47
273.564	540.21
273.792	538.63
274.021	536.81
274.249	536.5
274.477	535.65
274.706	532.99
274.934	531.08
275.162	528.96
275.391	527.41
275.619	524.56
275.847	523.94
276.075	522.87
276.304	522.25
276.532	521.99
276.76	520.72
276.988	520.47
277.216	520.1
277.445	518.12
277.673	518.92
277.901	518.12
278.129	519.1
278.357	517.88
278.585	518.48
278.813	518.03
279.041	517.54
279.269	516.19
279.497	517.03
279.725	516.58
279.954	517.18
280.182	518.05
280.41	518.59
280.637	518.05
280.865	516.98
281.093	516.68
281.321	516.16
281.549	515.43
281.777	516.9
282.005	514.43
282.233	513.79
282.461	513.01
282.689	510.68
282.916	509.32
283.144	508.43
283.372	508.28
283.6	506.65
283.828	505.27
284.055	505.12
284.283	503.38
284.511	503.63
284.739	503.14
284.966	502.7
285.194	503.43
285.422	502.56
285.649	501.81
285.877	501.65
286.105	501.48
286.332	502.03
286.56	502.36
286.788	502.34
287.015	501.94
287.243	500.87
287.47	500.28
287.698	498.88
287.925	498.99
288.153	498.76
288.381	498.03
288.608	497.81
288.836	496.72
289.063	496.01
289.29	494.63
289.518	493.94
289.745	493.85
289.973	493.45
290.2	493.9
290.428	492.79
290.655	492.58
290.882	491.99
291.11	490.94
291.337	490.7
291.564	489.7
291.792	490.38
292.019	489.61
292.246	488.94
292.473	488.05
292.701	486.5
292.928	485.7
293.155	485.01
293.382	484.83
293.61	484.65
293.837	483.39
294.064	483.41
294.291	481.72
294.518	481.01
294.745	481.81
294.972	482.01
295.2	481.16
295.427	481.87
295.654	481.99
295.881	482.12
296.108	481.98
296.335	482.52
296.562	479.99
296.789	479.45
297.016	478.94
297.243	477.48
297.47	475.56
297.697	476.28
297.924	475.43
298.151	473.36
298.378	471.63
298.604	470.72
298.831	470.05
299.058	471.34
299.285	472.58
299.512	471.47
299.739	471.63
299.966	471.41
300.192	469.54
300.419	469.28
300.646	469.59
300.873	468.41
301.099	468.32
301.326	467.59
301.553	466.67
301.78	465.92
302.006	466.98
302.233	465.99
302.46	466.1
302.686	465.78
302.913	464.68
303.14	463.98
303.366	464.92
303.593	463.98
303.819	463.78
304.046	463.19
304.272	462.41
304.499	461.12
304.725	461.47
304.952	461.12
305.179	460.39
305.405	461.12
305.631	461.54
305.858	460.78
306.084	460.67
306.311	460.52
306.537	460.67
306.764	460.03
306.99	460.25
307.216	460.56
307.443	460.87
307.669	462.32
307.895	459.61
308.122	458.1
308.348	458.58
308.574	457.74
308.801	458.14
309.027	458.12
309.253	457.47
309.479	457.68
309.706	456.68
309.932	456.1
310.158	455.08
310.384	457.39
310.61	457.65
310.837	457.23
311.063	458.27
311.289	457.12
311.515	457.28
311.741	457.79
311.967	457.18
312.193	456.54
312.419	456.21
312.645	456.47
312.871	455.3
313.097	456.39
313.323	456.96
313.549	458.14
313.775	457.79
314.001	456.83
314.227	456.58
314.453	457.58
314.679	458.3
314.905	459.28
315.131	458.9
315.357	459.7
315.583	458.54
315.809	458.32
316.034	458.16
316.26	458.03
316.486	458.87
316.712	459.18
316.938	458.41
317.163	458.92
317.389	457.99
317.615	458.5
317.841	458.05
318.066	460.14
318.292	461.07
318.518	460.27
318.743	460.99
318.969	462.9
319.195	463.5
319.42	464.52
319.646	464.85
319.872	465.74
320.097	467.54
320.323	468.52
320.548	469.36
320.774	470.07
320.999	470.83
321.225	472.21
321.45	471.88
321.676	473.34
321.901	473.83
322.127	474.7
322.352	477.94
322.578	477.83
322.803	480.39
323.029	481.58
323.254	482.07
323.479	483.59
323.705	486.03
323.93	487.67
324.155	489.23
324.381	492.63
324.606	494.5
324.831	495.23
325.057	497.58
325.282	498.19
325.507	500.94
325.732	505.25
325.958	508.67
326.183	509.56
326.408	511.78
326.633	514.78
326.858	517.23
327.084	520.43
327.309	523.12
327.534	525.92
327.759	529.34
327.984	531.34
328.209	533.27
328.434	535.41
328.659	539.5
328.884	542.47
329.109	544.88
329.334	547.36
329.559	550.52
329.784	554.27
330.009	558.38
330.234	560.92
330.459	563.7
330.684	567.43
330.909	572.27
331.134	575.72
331.359	580.34
331.584	585.28
331.809	588.19
332.034	591.36
332.259	595.21
332.483	600.45
332.708	605.14
332.933	609.87
333.158	612.96
333.383	617.38
333.607	623.05
333.832	627.81
334.057	631.76
334.282	636.98
334.506	642.39
334.731	646.08
334.956	649.9
335.18	656.18
335.405	662.27
335.63	669.25
335.854	674.12
336.079	678.9
336.303	684.45
336.528	690.32
336.753	696.18
336.977	702.74
337.202	710.27
337.426	715.81
337.651	721.16
337.875	728.34
338.1	734.47
338.324	740.56
338.549	747.58
338.773	754.28
338.997	762.41
339.222	769.43
339.446	776.41
339.671	782.32
339.895	790.38
340.119	799.38
340.344	805.45
340.568	812.88
340.792	821.65
341.017	829.23
341.241	837.45
341.465	845.81
341.689	855.1
341.914	861.52
342.138	870.83
342.362	878.18
342.586	885.39
342.811	892.65
343.035	901.83
343.259	909.07
343.483	917.61
343.707	925.47
343.931	933.67
344.155	941.78
344.38	952.14
344.604	961.19
344.828	971.74
345.052	980.48
345.276	989.79
345.5	998.32
345.724	1008.56
345.948	1018.34
346.172	1028.45
346.396	1039.38
346.62	1049.61
346.844	1060.08
347.068	1070.56
347.292	1080.58
347.515	1092.23
347.739	1105.18
347.963	1115.27
348.187	1126.32
348.411	1135.63
348.635	1145.68
348.859	1153.45
349.082	1164.08
349.306	1174.5
349.53	1184.01
349.754	1193.59
349.977	1202.98
350.201	1211.92
350.425	1223.85
350.649	1232.61
350.872	1243.65
351.096	1254.99
351.32	1268.03
351.543	1278.88
351.767	1290.88
351.99	1303.07
352.214	1315.36
352.438	1326.74
352.661	1339.99
352.885	1350.03
353.108	1362.54
353.332	1375.74
353.555	1386.47
353.779	1396.07
354.002	1406.36
354.226	1416.39
354.449	1429.23
354.673	1441.08
354.896	1452.19
355.12	1462.36
355.343	1474.14
355.566	1487.39
355.79	1498.45
356.013	1511.94
356.237	1525.85
356.46	1539.78
356.683	1552.08
356.907	1561.16
357.13	1574.12
357.353	1589.5
357.576	1601.68
357.8	1613.7
358.023	1626.32
358.246	1640.74
358.469	1653.05
358.693	1665.1
358.916	1678.85
359.139	1692.03
359.362	1707.43
359.585	1719.1
359.808	1731.61
360.031	1746.47
360.255	1761.72
360.478	1774.28
360.701	1786.56
360.924	1798.94
361.147	1811.47
361.37	1824.3
361.593	1838.92
361.816	1852.12
362.039	1864.98
362.262	1877.43
362.485	1891.08
362.708	1905.36
362.931	1919.68
363.154	1932.9
363.377	1946.3
363.599	1961.14
363.822	1974.76
364.045	1987.59
364.268	2001.25
364.491	2017.83
364.714	2030.83
364.936	2043.12
365.159	2056.43
365.382	2070.03
365.605	2083.92
365.828	2102.43
366.05	2114.56
366.273	2131.63
366.496	2145.41
366.718	2158.87
366.941	2173.45
367.164	2191.07
367.386	2206.98
367.609	2222.07
367.832	2236.27
368.054	2253.88
368.277	2268.21
368.5	2286.58
368.722	2298.7
368.945	2317.28
369.167	2334.61
369.39	2351.21
369.612	2365.63
369.835	2382.59
370.057	2401.27
370.28	2419.08
370.502	2436.54
370.725	2452.23
370.947	2468.74
371.169	2485.08
371.392	2500.36
371.614	2519.94
371.837	2535.56
372.059	2552.12
372.281	2569.28
372.504	2584.27
372.726	2599.85
372.948	2615.99
373.171	2633.28
373.393	2648.81
373.615	2665.92
373.837	2682.99
374.06	2696.79
374.282	2712.03
374.504	2731.72
374.726	2751.28
374.948	2770.32
375.17	2788.96
375.393	2805.78
375.615	2823.63
375.837	2843.92
376.059	2864.43
376.281	2883.83
376.503	2906.16
376.725	2928.43
376.947	2947.85
377.169	2967.68
377.391	2988.78
377.613	3011.68
377.835	3032.61
378.057	3054.18
378.279	3075.27
378.501	3097.59
378.723	3120.83
378.945	3139.16
379.167	3161.68
379.389	3184.21
379.611	3204.83
379.833	3227.9
380.054	3249.76
380.276	3277.96
380.498	3302.96
380.72	3328.56
380.942	3351.27
381.163	3375.99
381.385	3402.36
381.607	3425.54
381.829	3448.96
382.05	3472.48
382.272	3496.61
382.494	3525.18
382.716	3545.85
382.937	3566.25
383.159	3588.81
383.381	3614.36
383.602	3639.38
383.824	3663.43
384.045	3691.61
384.267	3719.18
384.488	3747.68
384.71	3771.68
384.932	3794.05
385.153	3820.83
385.375	3850.65
385.596	3880.52
385.818	3908.47
386.039	3933.18
386.261	3961.21
386.482	3984.67
386.703	4009.41
386.925	4036.88
387.146	4066.47
387.368	4095.94
387.589	4123.63
387.81	4151.85
388.032	4177.83
388.253	4206.96
388.474	4234.63
388.696	4263.9
388.917	4295.41
389.138	4323.78
389.359	4354.05
389.581	4382.76
389.802	4410.28
390.023	4440.19
390.244	4468.21
390.465	4497.99
390.687	4525.52
390.908	4558.14
391.129	4589.9
391.35	4618.68
391.571	4652.16
391.792	4680.85
392.013	4709.99
392.234	4742.12
392.455	4772.32
392.677	4803.16
392.898	4835.48
393.119	4866.9
393.34	4898.45
393.561	4929.23
393.782	4960.76
394.003	4996.9
394.223	5028.45
394.444	5061.68
394.665	5092.59
394.886	5123.01
395.107	5157.94
395.328	5187.68
395.549	5221.96
395.77	5255.03
395.99	5290.21
396.211	5325.87
396.432	5356.83
396.653	5391.52
396.874	5425.67
397.094	5462.3
397.315	5497.3
397.536	5529.56
397.757	5565.88
397.977	5601.08
398.198	5636.54
398.419	5670.9
398.639	5703.34
398.86	5732.68
399.081	5766.38
399.301	5799.21
399.522	5831.54
399.742	5865.81
399.963	5899.36
400.184	5936.03
400.404	5965.9
400.625	5998.19
400.845	6030.03
401.066	6062.47
401.286	6099.1
401.507	6130.5
401.727	6163.76
401.948	6194.99
402.168	6225.23
402.388	6259.47
402.609	6290.54
402.829	6329.56
403.05	6362.76
403.27	6394.38
403.49	6429.45
403.711	6461.38
403.931	6498.19
404.151	6531.68
404.372	6568.41
404.592	6606.34
404.812	6640.21
405.032	6672.78
405.253	6705.1
405.473	6741.18
405.693	6778.41
405.913	6814.28
406.133	6850.39
406.353	6890.07
406.574	6926.27
406.794	6959.07
407.014	6992.9
407.234	7029.96
407.454	7067.01
407.674	7105.74
407.894	7143.01
408.114	7177.68
408.334	7211.98
408.554	7249.94
408.774	7280.5
408.994	7316.65
409.214	7353.79
409.434	7391.1
409.654	7427.56
409.874	7463.81
410.094	7494.23
410.314	7529.27
410.534	7569.81
410.754	7610.27
410.974	7646.32
411.193	7684.7
411.413	7726.38
411.633	7770.32
411.853	7808.48
412.073	7848.88
412.292	7888.43
412.512	7933.74
412.732	7968.79
412.952	8003.07
413.171	8041.85
413.391	8081.65
413.611	8124.79
413.831	8165.54
414.05	8201.12
414.27	8247.41
414.489	8287.59
414.709	8328.61
414.929	8368.47
415.148	8416.65
415.368	8461.3
415.587	8504.25
415.807	8549.18
416.026	8588.01
416.246	8628.18
416.465	8676.99
416.685	8720.56
416.904	8767.23
417.124	8812.61
417.343	8857.41
417.563	8901.41
417.782	8946.38
418.002	8993.1
418.221	9035.21
418.44	9081.14
418.66	9125.83
418.879	9167.94
419.098	9206.28
419.318	9248.27
419.537	9293.56
419.756	9335.68
419.976	9378.07
420.195	9421.21
420.414	9462.83
420.633	9508.18
420.853	9552.47
421.072	9594.14
421.291	9634.63
421.51	9681.14
421.729	9720.78
421.948	9763.76
422.168	9806.3
422.387	9848.96
422.606	9889.38
422.825	9931.59
423.044	9973.87
423.263	10014.12
423.482	10057.65
423.701	10101.74
423.92	10148.3
424.139	10193.23
424.358	10240.83
424.577	10288.81
424.796	10340.52
425.015	10391.88
425.234	10435.45
425.453	10483.43
425.672	10532.78
425.891	10581.96
426.11	10630.74
426.328	10674.63
426.547	10724.85
426.766	10770.67
426.985	10817.63
427.204	10862.36
427.422	10907.32
427.641	10958.83
427.86	11004.79
428.079	11054.34
428.297	11104.23
428.516	11154.39
428.735	11202.21
428.954	11249.08
429.172	11296.81
429.391	11342.45
429.61	11388.72
429.828	11434.65
430.047	11480.18
430.265	11526.47
430.484	11573.38
430.703	11619.1
430.921	11663.98
431.14	11709.25
431.358	11754.36
431.577	11802.98
431.795	11847.78
432.014	11897.87
432.232	11945.47
432.451	11998.96
432.669	12052.5
432.887	12101.39
433.106	12149.28
433.324	12197.96
433.543	12250.3
433.761	12300.68
433.979	12343.23
434.198	12392.43
434.416	12436.28
434.634	12485.07
434.853	12530.59
435.071	12571.68
435.289	12614.03
435.507	12658.21
435.726	12705.45
435.944	12749.45
436.162	12789.59
436.38	12835.25
436.598	12881.81
436.817	12931.12
437.035	12976.12
437.253	13019.16
437.471	13069.41
437.689	13118.21
437.907	13167.65
438.125	13210.99
438.343	13262.85
438.561	13320.34
438.78	13371.56
438.998	13422.25
439.216	13466.39
439.434	13513.12
439.652	13557.52
439.869	13601.05
440.087	13646.72
440.305	13690.72
440.523	13740.88
440.741	13784.78
440.959	13828.88
441.177	13881.74
441.395	13928.65
441.613	13978.78
441.831	14028.39
442.048	14081.14
442.266	14131.05
442.484	14183.88
442.702	14232.99
442.919	14280.39
443.137	14332.03
443.355	14387.03
443.573	14436.28
443.79	14482.56
444.008	14534.32
444.226	14588.56
444.443	14634.9
444.661	14684.18
444.879	14734.96
445.096	14782.98
445.314	14836.39
445.532	14885.18
445.749	14926.5
445.967	14970.28
446.184	15022.52
446.402	15065.14
446.619	15109.56
446.837	15157.79
447.054	15209.88
447.272	15250.25
447.489	15297.88
447.707	15338.25
447.924	15384.34
448.141	15435.07
448.359	15484.36
448.576	15528.01
448.794	15578.76
449.011	15625.14
449.228	15674.12
449.446	15718.52
449.663	15770.76
449.88	15813.87
450.098	15865.78
450.315	15916.16
450.532	15963.67
450.749	16010.39
450.967	16058.76
451.184	16111.92
451.401	16157.58
451.618	16204.88
451.835	16253.32
452.052	16297.19
452.27	16350.96
452.487	16396.23
452.704	16440.94
452.921	16488.23
453.138	16534.92
453.355	16585.07
453.572	16630.16
453.789	16679.56
454.006	16723.34
454.223	16767.16
454.44	16811.92
454.657	16858.23
454.874	16904.76
455.091	16945.12
455.308	16991.63
455.525	17036.23
455.742	17080.21
455.959	17122.52
456.176	17169.12
456.393	17222.03
456.609	17270.96
456.826	17324.59
457.043	17371.96
457.26	17420.5
457.477	17475.3
457.693	17512.63
457.91	17556.68
458.127	17598.87
458.344	17644.5
458.56	17689.38
458.777	17734.87
458.994	17779.99
459.21	17818.94
459.427	17858.05
459.644	17894.14
459.86	17923.59
460.077	17966.63
460.294	18003.59
460.51	18041.76
460.727	18074.72
460.943	18114.14
461.16	18141.58
461.376	18175.54
461.593	18207.14
461.809	18248.19
462.026	18284.18
462.242	18323.79
462.459	18365.52
462.675	18402.21
462.892	18443.25
463.108	18481.87
463.324	18517.41
463.541	18562.45
463.757	18595.92
463.974	18642.92
464.19	18681.01
464.406	18725.05
464.623	18773.52
464.839	18813.9
465.055	18864.92
465.271	18916.38
465.488	18963.63
465.704	19011.34
465.92	19060.14
466.136	19118.99
466.353	19169.7
466.569	19224.41
466.785	19281.41
467.001	19332.72
467.217	19392.21
467.433	19448.03
467.649	19496.81
467.865	19563.85
468.082	19625.76
468.298	19685.25
468.514	19744.81
468.73	19803.79
468.946	19870.23
469.162	19930.07
469.378	19994.78
469.594	20058.3
469.81	20121.23
470.026	20190.39
470.242	20248.87
470.457	20314.21
470.673	20375.18
470.889	20443.74
471.105	20516.65
471.321	20581.52
471.537	20648.47
471.753	20710.21
471.968	20778.25
472.184	20852.36
472.4	20926.23
472.616	20992.76
472.832	21065.45
473.047	21146.21
473.263	21213.43
473.479	21288.21
473.694	21358.58
473.91	21438.56
474.126	21515.58
474.341	21586.74
474.557	21658.39
474.773	21715.78
474.988	21793.28
475.204	21865.25
475.42	21930.94
475.635	22003.12
475.851	22069.79
476.066	22139.61
476.282	22203.85
476.497	22279.76
476.713	22345.5
476.928	22410.41
477.144	22489.7
477.359	22553.63
477.575	22612.81
477.79	22678.9
478.005	22739.48
478.221	22798.47
478.436	22853.92
478.651	22917.34
478.867	22967.54
479.082	23030.36
479.297	23092.07
479.513	23148.28
479.728	23202.9
479.943	23255.94
480.159	23311.47
480.374	23366.16
480.589	23417.72
480.804	23473.83
481.019	23524.96
481.235	23575.48
481.45	23622.27
481.665	23666.05
481.88	23716.01
482.095	23770.12
482.31	23821.96
482.525	23872.03
482.741	23923.99
482.956	23969.19
483.171	24021.21
483.386	24067.01
483.601	24113.94
483.816	24162.18
484.031	24207.08
484.246	24249.39
484.461	24292.63
484.676	24335.38
484.891	24375.83
485.105	24409.19
485.32	24455.23
485.535	24494.07
485.75	24536.34
485.965	24589.32
486.18	24631.81
486.395	24674.65
486.609	24716.3
486.824	24750.19
487.039	24792.68
487.254	24830.19
487.469	24877.99
487.683	24920.23
487.898	24958.5
488.113	25001.67
488.327	25031.47
488.542	25069.3
488.757	25110.12
488.972	25146.43
489.186	25190.83
489.401	25228.99
489.615	25268.34
489.83	25302.83
490.045	25339.43
490.259	25380.3
490.474	25404.5
490.688	25439.41
490.903	25467.03
491.117	25500.18
491.332	25525.23
491.546	25560.81
491.761	25588.81
491.975	25612.41
492.19	25642.9
492.404	25669.58
492.618	25693.92
492.833	25725.19
493.047	25753.96
493.262	25787.72
493.476	25812.14
493.69	25852.12
493.905	25871.72
494.119	25907.16
494.333	25950.28
494.547	25983.92
494.762	26019.94
494.976	26051.88
495.19	26076.63
495.404	26103.59
495.619	26139.16
495.833	26164.16
496.047	26176.87
496.261	26193.19
496.475	26206.43
496.689	26206.76
496.903	26211.76
497.117	26215.72
497.332	26215.3
497.546	26217.74
497.76	26212.07
497.974	26193.56
498.188	26179.83
498.402	26178.34
498.616	26171.28
498.83	26160.48
499.044	26152.47
499.258	26153.59
499.472	26141.12
499.685	26138.81
499.899	26136.5
500.113	26138.25
500.327	26142.98
500.541	26156.96
500.755	26169.99
500.969	26191.63
501.183	26208.9
501.396	26233.12
501.61	26247.94
501.824	26265.39
502.038	26279.45
502.251	26307.56
502.465	26336.16
502.679	26359.18
502.892	26379.14
503.106	26391.96
503.32	26411.59
503.533	26432.12
503.747	26449.81
503.961	26473.54
504.174	26499.3
504.388	26542.48
504.602	26568.16
504.815	26601.98
505.029	26640.98
505.242	26685.39
505.456	26731.07
505.669	26774.94
505.883	26824.85
506.096	26875.05
506.31	26925.03
506.523	26980.59
506.736	27027.19
506.95	27086.74
507.163	27141.94
507.377	27200.01
507.59	27253.14
507.803	27316.81
508.017	27375.18
508.23	27437.85
508.443	27500.08
508.657	27558.98
508.87	27622.16
509.083	27683.1
509.296	27751.38
509.51	27819.67
509.723	27900.12
509.936	27978.23
510.149	28056.19
510.363	28141.61
510.576	28226.03
510.789	28315.76
511.002	28415.99
511.215	28521.9
511.428	28625.34
511.641	28725.45
511.854	28829.58
512.067	28923.01
512.28	29032.19
512.493	29135.85
512.707	29239.08
512.92	29341.23
513.132	29448.83
513.345	29537.99
513.558	29633.03
513.771	29740.54
513.984	29840.25
514.197	29949.34
514.41	30065.48
514.623	30164.96
514.836	30275.59
515.049	30377.41
515.262	30485.03
515.474	30593.3
515.687	30709.72
515.9	30813.39
516.113	30910.54
516.325	31017.27
516.538	31097.45
516.751	31179.12
516.964	31266.36
517.176	31344.74
517.389	31436.41
517.602	31513.78
517.814	31591.54
518.027	31670.72
518.24	31749.12
518.452	31828.92
518.665	31902.56
518.877	31979.58
519.09	32056.72
519.303	32131.83
519.515	32202.41
519.728	32269.85
519.94	32333.98
520.153	32397.88
520.365	32463.07
520.578	32526.36
520.79	32587.83
521.002	32642.63
521.215	32713.12
521.427	32767.01
521.64	32819.68
521.852	32884.19
522.064	32939.9
522.277	32999.41
522.489	33050.85
522.701	33101.7
522.914	33163.87
523.126	33212.72
523.338	33263.45
523.551	33303.74
523.763	33357.07
523.975	33403.07
524.187	33442.16
524.399	33484.27
524.612	33530.87
524.824	33570.34
525.036	33607.18
525.248	33642.41
525.46	33680.28
525.672	33713.63
525.884	33752.45
526.096	33787.87
526.308	33829.16
526.521	33859.88
526.733	33894.94
526.945	33925.14
527.157	33958.01
527.369	33992.05
527.581	34015.92
527.793	34036.67
528.004	34073.87
528.216	34109.34
528.428	34136.43
528.64	34167.79
528.852	34209.99
529.064	34237.74
529.276	34264.07
529.488	34292.47
529.699	34318.76
529.911	34344.48
530.123	34384.3
530.335	34409.01
530.547	34429.94
530.758	34455.1
530.97	34480.32
531.182	34496.56
531.393	34528.61
531.605	34560.94
531.817	34601.54
532.029	34627.01
532.24	34657.43
532.452	34685.9
532.663	34709.78
532.875	34729.5
533.087	34748.99
533.298	34767.03
533.51	34795.08
533.721	34807.88
533.933	34829.18
534.144	34845.16
534.356	34868.14
534.567	34890.67
534.779	34896.61
534.99	34910.36
535.202	34937.38
535.413	34954.21
535.624	34968.68
535.836	34985.27
536.047	35007.58
536.259	35019.68
536.47	35027.56
536.681	35040.25
536.893	35045.61
537.104	35058.99
537.315	35086.92
537.526	35098.7
537.738	35112.12
537.949	35135.79
538.16	35151.54
538.371	35160.94
538.582	35174.67
538.794	35192.19
539.005	35206.41
539.216	35229.63
539.427	35259.16
539.638	35273.47
539.849	35293.03
540.06	35309.32
540.272	35311.79
540.483	35327.98
540.694	35335.63
540.905	35349.48
541.116	35362.96
541.327	35380.87
541.538	35390.43
541.749	35391.5
541.96	35396.36
542.17	35401.87
542.381	35416.28
542.592	35440.59
542.803	35440.27
543.014	35446.1
543.225	35452.28
543.436	35450.81
543.647	35454.74
543.857	35468.47
544.068	35477.14
544.279	35482.9
544.49	35491.34
544.701	35496.76
544.911	35501.01
545.122	35505.99
545.333	35520.59
545.543	35532.39
545.754	35545.48
545.965	35559.25
546.175	35559.76
546.386	35569.21
546.597	35577.88
546.807	35585.78
547.018	35594.39
547.229	35597.43
547.439	35600.94
547.65	35614.63
547.86	35617.94
548.071	35626.92
548.281	35622.48
548.492	35631.28
548.702	35638.7
548.913	35644.87
549.123	35653.94
549.333	35660.96
549.544	35671.36
549.754	35682.87
549.965	35687.74
550.175	35699.72
550.385	35699.92
550.596	35715.21
550.806	35721.87
551.016	35725.19
551.227	35734.36
551.437	35732.08
551.647	35736.94
551.857	35746.03
552.068	35762.23
552.278	35769.12
552.488	35769.7
552.698	35784.12
552.908	35792.61
553.119	35786.3
553.329	35785.59
553.539	35781.19
553.749	35788.81
553.959	35788.28
554.169	35776.96
554.379	35771.85
554.589	35759.34
554.799	35761.45
555.009	35755.28
555.219	35741.96
555.429	35750.85
555.639	35758.92
555.849	35758.5
556.059	35754.19
556.269	35749.27
556.479	35742.85
556.689	35735.79
556.899	35741.21
557.109	35740.74
557.319	35748.16
557.528	35752.47
557.738	35749.78
557.948	35744.43
558.158	35742.61
558.368	35725.99
558.577	35721.03
558.787	35715.45
558.997	35713.43
559.207	35699.27
559.416	35679.47
559.626	35661.07
559.836	35638.67
560.045	35630.74
560.255	35622.32
560.465	35620.01
560.674	35633.72
560.884	35631.94
561.093	35623.54
561.303	35606.94
561.512	35606.25
561.722	35604.59
561.932	35598.61
562.141	35603.87
562.351	35596.36
562.56	35588.67
562.769	35587.28
562.979	35574.52
563.188	35572.23
563.398	35577.43
563.607	35575.1
563.817	35570.14
564.026	35568.28
564.235	35563.58
564.445	35557.63
564.654	35546.98
564.863	35540.54
565.073	35516.96
565.282	35509.43
565.491	35486.48
565.7	35475.01
565.91	35462.05
566.119	35446.92
566.328	35422.01
566.537	35404.63
566.746	35377.59
566.956	35350.94
567.165	35336.65
567.374	35326.12
567.583	35311.27
567.792	35314.25
568.001	35294.07
568.21	35279.3
568.419	35251.19
568.628	35235.72
568.837	35214.5
569.046	35202.01
569.255	35196.74
569.464	35162.99
569.673	35125.59
569.882	35088.36
570.091	35048.36
570.3	35021.07
570.509	34995.21
570.718	34982.63
570.927	34967.68
571.135	34943.74
571.344	34925.18
571.553	34902.68
571.762	34894.07
571.971	34894.54
572.18	34884.72
572.388	34872.59
572.597	34857.85
572.806	34843.59
573.014	34820.54
573.223	34801.05
573.432	34785.38
573.641	34757.39
573.849	34737.07
574.058	34713.94
574.266	34686.47
574.475	34662.54
574.684	34638.12
574.892	34619.19
575.101	34602.43
575.309	34576.03
575.518	34556.16
575.726	34532.58
575.935	34525.87
576.143	34497.59
576.352	34478.34
576.56	34461.68
576.769	34438.41
576.977	34431.01
577.186	34416.96
577.394	34392.63
577.602	34376.18
577.811	34344.05
578.019	34319.16
578.228	34289.14
578.436	34269.39
578.644	34249.54
578.852	34217.99
579.061	34195.28
579.269	34157.47
579.477	34123.48
579.685	34097.05
579.894	34076.07
580.102	34065.68
580.31	34039.63
580.518	34024.52
580.726	34006.54
580.935	33981.05
581.143	33958.1
581.351	33936.45
581.559	33915.67
581.767	33896.5
581.975	33880.32
582.183	33854.61
582.391	33825.41
582.599	33805.99
582.807	33775.25
583.015	33753.47
583.223	33728.14
583.431	33712.99
583.639	33688.58
583.847	33671.88
584.055	33646.28
584.263	33608.36
584.471	33589.19
584.678	33561.12
584.886	33541.94
585.094	33515.85
585.302	33499.08
585.51	33475.39
585.718	33445.67
585.925	33419.07
586.133	33387.9
586.341	33363.34
586.549	33355.19
586.756	33331.01
586.964	33315.28
587.172	33285.03
587.379	33258.25
587.587	33221.23
587.795	33197.56
588.002	33172.45
588.21	33151.99
588.417	33120.94
588.625	33087.48
588.833	33049.38
589.04	33024.08
589.248	33001.72
589.455	32982.41
589.663	32964.58
589.87	32936.9
590.078	32910.07
590.285	32881.41
590.492	32853.74
590.7	32833.83
590.907	32816.32
591.115	32790.87
591.322	32765.32
591.529	32727.72
591.737	32697.78
591.944	32666.25
592.151	32642.52
592.359	32611.41
592.566	32579.23
592.773	32543.87
592.981	32502.08
593.188	32463.74
593.395	32431.32
593.602	32391.27
593.809	32362.08
594.017	32336.72
594.224	32308.79
594.431	32277.14
594.638	32236.79
594.845	32205.94
595.052	32182.07
595.259	32160.59
595.466	32137.36
595.673	32109.54
595.88	32085.65
596.088	32062.85
596.295	32033.01
596.502	32005.68
596.709	31976.18
596.915	31953.85
597.122	31935.39
597.329	31910.9
597.536	31882.94
597.743	31854.78
597.95	31831.54
598.157	31799.48
598.364	31750.23
598.571	31708.05
598.777	31648.67
598.984	31605.01
599.191	31553.28
599.398	31496.32
599.605	31440.38
599.811	31383.12
600.018	31327.25
600.225	31267.81
600.431	31217.19
600.638	31176.81
600.845	31138.94
601.052	31108.18
601.258	31059.19
601.465	31015.32
601.671	30963.81
601.878	30890.47
602.085	30809.58
602.291	30704.76
602.498	30586.36
602.704	30438.87
602.911	30284.3
603.117	30097.59
603.324	29894.72
603.53	29677.21
603.737	29457.5
603.943	29217.83
604.15	28977.61
604.356	28731.58
604.562	28486.54
604.769	28234.25
604.975	27983.81
605.181	27714.5
605.388	27456.19
605.594	27193.74
605.8	26923.87
606.007	26651.32
606.213	26385.21
606.419	26114.3
606.625	25842.47
606.832	25575.92
607.038	25300.59
607.244	25031.21
607.45	24768.59
607.656	24500.21
607.863	24242.01
608.069	23982.7
608.275	23719.58
608.481	23454.74
608.687	23189.65
608.893	22919.99
609.099	22645.41
609.305	22378.05
609.511	22108.01
609.717	21831.67
609.923	21549.74
610.129	21260.52
610.335	20975.72
610.541	20683.52
610.747	20391.48
610.953	20094.81
611.159	19795.78
611.365	19495.65
611.571	19191.98
611.776	18882.78
611.982	18575.59
612.188	18267.9
612.394	17958.47
612.6	17649.52
612.806	17335.28
613.011	17020.19
613.217	16712.76
613.423	16409.87
613.628	16104.9
613.834	15803.43
614.04	15504.34
614.246	15210.94
614.451	14928.81
614.657	14653.03
614.862	14379.08
615.068	14119.03
615.274	13861.05
615.479	13605.81
615.685	13357.76
615.89	13109.92
616.096	12863.67
616.301	12621.87
616.507	12378.41
616.712	12125.21
616.918	11872.12
617.123	11616.28
617.329	11358.16
617.534	11098.14
617.74	10834.98
617.945	10564.7
618.15	10285.85
618.356	9854.63
618.561	9063.78
618.766	8105.05
618.972	7119.81
619.177	6158.28
619.382	5224.16
619.588	4310.61
619.793	3764.37
619.998	3128.67
620.203	2368.52
620.408	1444.75
620.614	537.57
