Data from test1_MAYP1115451__17__10-17-14-920.txt Node

Date: Wed Jun 12 10:17:14 MDT 2024
User: Modes Lab
Spectrometer: MAYP111545
Trigger mode: 0
Integration Time (sec): 8.000000E-3
Scans to average: 5
Electric dark correction enabled: true
Nonlinearity correction enabled: false
Boxcar width: 5
XAxis mode: Wavelengths
Number of Pixels in Spectrum: 2068
>>>>>Begin Spectral Data<<<<<
165.214	164.07
165.449	164.21
165.683	173.14
165.918	182.24
166.152	188.55
166.387	193.9
166.621	126.34
166.856	164.43
167.09	183.43
167.325	206.72
167.559	223.39
167.794	236.9
168.028	244.21
168.263	245.5
168.497	245.34
168.732	245.99
168.966	246.94
169.2	246.9
169.435	248.9
169.669	250.23
169.903	251.83
170.138	253.47
170.372	255.45
170.606	257.27
170.841	258.59
171.075	260.19
171.309	262.28
171.544	263.7
171.778	265.52
172.012	266.25
172.246	268.27
172.48	269.78
172.715	270.92
172.949	274.07
173.183	275.61
173.417	277.16
173.651	278.38
173.885	279.68
174.119	280.63
174.354	280.56
174.588	281.28
174.822	281.38
175.056	281.58
175.29	281.78
175.524	280.38
175.758	280.72
175.992	281.01
176.226	281.39
176.46	280.98
176.694	281.68
176.928	283.18
177.162	284.56
177.396	284.47
177.63	286.05
177.864	287.3
178.097	287.88
178.331	287.87
178.565	288.27
178.799	287.68
179.033	288.48
179.267	289.39
179.5	290.7
179.734	291.5
179.968	293.28
180.202	294.38
180.436	295.3
180.669	296.52
180.903	298.18
181.137	299.05
181.371	301.94
181.604	302.88
181.838	302.58
182.072	303.47
182.305	305.25
182.539	305.67
182.772	305.94
183.006	306.25
183.24	307.52
183.473	310.94
183.707	312.7
183.94	312.61
184.174	313.52
184.408	315.19
184.641	317.18
184.875	317.05
185.108	318.52
185.342	319.58
185.575	321.47
185.808	321.83
186.042	321.36
186.275	322.58
186.509	323.54
186.742	325.38
186.976	327.14
187.209	327.65
187.442	330.23
187.676	331.54
187.909	333.56
188.142	334.45
188.376	336.61
188.609	338.1
188.842	339.81
189.076	341.45
189.309	342.28
189.542	343.72
189.775	345.32
190.009	346.34
190.242	347.23
190.475	348.39
190.708	351.03
190.941	352.61
191.174	353.39
191.408	354.67
191.641	358.01
191.874	359.9
192.107	361.85
192.34	364.18
192.573	365.39
192.806	367.94
193.039	369.7
193.272	371.76
193.505	373.21
193.738	375.88
193.971	378.07
194.204	378.67
194.437	381.68
194.67	382.19
194.903	382.9
195.136	384.25
195.369	386.98
195.602	388.14
195.835	389.52
196.068	391.9
196.301	392.79
196.533	394.7
196.766	396.16
196.999	397.9
197.232	400.56
197.465	402.12
197.698	406.01
197.93	407.81
198.163	409.96
198.396	412.43
198.629	414.39
198.861	416.58
199.094	417.68
199.327	420.54
199.559	422.18
199.792	423.79
200.025	426.81
200.257	427.78
200.49	429.27
200.723	432.56
200.955	434.47
201.188	436.72
201.42	439.45
201.653	441.9
201.886	443.96
202.118	446.14
202.351	449.59
202.583	451.58
202.816	453.07
203.048	454.92
203.281	456.7
203.513	458.48
203.745	461.03
203.978	462.32
204.21	464.58
204.443	467.1
204.675	469.78
204.907	471.92
205.14	474.67
205.372	476.83
205.605	479.98
205.837	481.96
206.069	485.16
206.302	487.14
206.534	490.94
206.766	492.68
206.998	495.03
207.231	497.54
207.463	499.32
207.695	501.61
207.927	504.99
208.159	507.54
208.392	508.98
208.624	510.23
208.856	512.3
209.088	513.7
209.32	517.07
209.552	517.87
209.784	519.32
210.017	521.39
210.249	522.3
210.481	523.92
210.713	524.1
210.945	526.28
211.177	527.76
211.409	530.99
211.641	532.43
211.873	534.85
212.105	537.14
212.337	538.52
212.569	540.98
212.801	543.85
213.033	546.19
213.264	548.41
213.496	551.19
213.728	554.85
213.96	556.08
214.192	557.92
214.424	559.78
214.656	562.16
214.887	564.47
215.119	566.52
215.351	567.68
215.583	569.7
215.815	572.85
216.046	573.65
216.278	573.63
216.51	575.1
216.741	576.36
216.973	577.21
217.205	579.76
217.436	581.79
217.668	584.96
217.9	586.25
218.131	587.14
218.363	588.16
218.595	589.78
218.826	591.65
219.058	592.88
219.289	595.28
219.521	596.23
219.752	596.98
219.984	596.98
220.215	595.85
220.447	597.56
220.678	598.43
220.91	599.34
221.141	600.96
221.373	602.45
221.604	603.16
221.836	604.14
222.067	605.52
222.298	605.03
222.53	605.43
222.761	606.52
222.993	607.74
223.224	607.78
223.455	608.36
223.686	607.94
223.918	607.61
224.149	608.19
224.38	609.38
224.612	609.96
224.843	611.25
225.074	614.1
225.305	615.5
225.536	616.36
225.768	618.45
225.999	618.98
226.23	620.32
226.461	620.88
226.692	621.87
226.923	621.16
227.155	623.59
227.386	624.41
227.617	623.92
227.848	623.07
228.079	623.14
228.31	623.41
228.541	623.81
228.772	624.56
229.003	626.32
229.234	626.1
229.465	626.07
229.696	624.12
229.927	624.05
230.158	623.07
230.389	622.48
230.62	621.79
230.85	620.63
231.081	620.94
231.312	620.92
231.543	619.32
231.774	619.98
232.005	621.34
232.236	621.28
232.466	620.94
232.697	622.28
232.928	622.88
233.159	623.87
233.389	626.23
233.62	625.18
233.851	624.52
234.082	625.1
234.312	625.18
234.543	624.28
234.774	624.99
235.004	624.79
235.235	624.72
235.466	624.79
235.696	624.34
235.927	623.21
236.157	623.65
236.388	623.85
236.618	624.92
236.849	623.08
237.08	623.81
237.31	624.16
237.541	622.99
237.771	620.7
238.002	621.14
238.232	619.9
238.463	617.63
238.693	617.28
238.923	616.96
239.154	615.1
239.384	616.61
239.615	615.19
239.845	613.16
240.075	614.63
240.306	615.72
240.536	615.1
240.766	616.56
240.997	616.76
241.227	617.99
241.457	617.58
241.687	617.65
241.918	617.83
242.148	617.83
242.378	617.25
242.608	617.18
242.839	616.45
243.069	615.27
243.299	613.43
243.529	614.96
243.759	613.38
243.989	614.25
244.22	614.27
244.45	612.14
244.68	611.87
244.91	612.38
245.14	610.99
245.37	610.59
245.6	611.14
245.83	611.67
246.06	609.83
246.29	608.98
246.52	606.74
246.75	606.05
246.98	606.18
247.21	604.94
247.44	604.76
247.67	604.58
247.9	604.81
248.13	603.48
248.359	603.65
248.589	603.38
248.819	602.52
249.049	603.36
249.279	602.88
249.509	601.68
249.738	602.19
249.968	600.27
250.198	599.61
250.428	599.21
250.657	598.58
250.887	597.08
251.117	595.9
251.347	595.59
251.576	594.38
251.806	593.18
252.036	593.54
252.265	592.54
252.495	592.83
252.725	591.5
252.954	590.63
253.184	590.01
253.413	589.21
253.643	589.45
253.873	588.54
254.102	588.96
254.332	588.92
254.561	587.08
254.791	585.99
255.02	584.74
255.25	584.99
255.479	583.78
255.708	583.68
255.938	581.76
256.167	579.43
256.397	579.19
256.626	577.39
256.856	576.48
257.085	575.85
257.314	574.96
257.544	574.76
257.773	573.28
258.002	571.58
258.232	570.56
258.461	570.52
258.69	570.38
258.919	569.36
259.149	567.72
259.378	567.14
259.607	566.58
259.836	565.5
260.065	564.87
260.295	565.14
260.524	565.63
260.753	565.56
260.982	564.68
261.211	564.21
261.44	563.65
261.669	564.47
261.899	562.96
262.128	562.67
262.357	561.83
262.586	560.59
262.815	559.5
263.044	557.76
263.273	559.88
263.502	558.87
263.731	557.28
263.96	556.81
264.189	555.41
264.418	555.63
264.646	554.18
264.875	553.7
265.104	553.18
265.333	551.9
265.562	552.59
265.791	547.72
266.02	547.63
266.249	547.68
266.477	547.14
266.706	546.01
266.935	542.88
267.164	542.12
267.393	542.34
267.621	542.87
267.85	542.76
268.079	541.83
268.307	541.87
268.536	541.41
268.765	541.01
268.993	540.34
269.222	539.88
269.451	539.9
269.679	540.21
269.908	541.1
270.137	539.27
270.365	539.65
270.594	539.27
270.822	539.01
271.051	539.38
271.279	539.36
271.508	539.1
271.736	540.43
271.965	542.05
272.193	541.92
272.422	540.36
272.65	541.98
272.879	541.23
273.107	542.23
273.336	543.07
273.564	541.88
273.792	541.56
274.021	539.94
274.249	538.14
274.477	537.28
274.706	535.7
274.934	534.01
275.162	531.88
275.391	530.83
275.619	528.65
275.847	526.79
276.075	525.9
276.304	525.5
276.532	525.41
276.76	524.48
276.988	523.58
277.216	522.87
277.445	521.81
277.673	520.5
277.901	520.41
278.129	519.5
278.357	517.56
278.585	518.18
278.813	517.07
279.041	516.98
279.269	515.5
279.497	513.96
279.725	514.7
279.954	515.79
280.182	514.83
280.41	513.61
280.637	513.39
280.865	513.1
281.093	511.81
281.321	511.72
281.549	510.43
281.777	510.54
282.005	511.07
282.233	509.92
282.461	509.87
282.689	509.21
282.916	508.5
283.144	507.81
283.372	508.41
283.6	509.07
283.828	507.27
284.055	507.03
284.283	506.28
284.511	505.41
284.739	504.99
284.966	503.43
285.194	504.07
285.422	503.36
285.649	503.45
285.877	501.94
286.105	500.3
286.332	500.48
286.56	500.56
286.788	501.01
287.015	500.38
287.243	499.39
287.47	498.67
287.698	497.72
287.925	497.54
288.153	497.27
288.381	497.03
288.608	496.05
288.836	495.59
289.063	495.07
289.29	494.28
289.518	493.81
289.745	493.27
289.973	491.88
290.2	491.74
290.428	490.94
290.655	489.16
290.882	489.34
291.11	488.68
291.337	487.85
291.564	486.99
291.792	486.65
292.019	486.96
292.246	487.05
292.473	486.5
292.701	485.98
292.928	485.78
293.155	486.1
293.382	485.3
293.61	484.03
293.837	484.19
294.064	483.68
294.291	481.83
294.518	480.72
294.745	481.23
294.972	480.3
295.2	478.85
295.427	478.05
295.654	477.32
295.881	476.08
296.108	477.05
296.335	476.36
296.562	475.5
296.789	475.3
297.016	474.81
297.243	472.96
297.47	473.92
297.697	474.39
297.924	473.79
298.151	472.78
298.378	472.72
298.604	471.63
298.831	470.3
299.058	470.03
299.285	469.83
299.512	469.96
299.739	469.19
299.966	467.45
300.192	466.14
300.419	466.23
300.646	465.32
300.873	465.5
301.099	465.05
301.326	465.23
301.553	465.83
301.78	466.52
302.006	465.9
302.233	465.65
302.46	465.65
302.686	465.68
302.913	463.88
303.14	464.1
303.366	463.1
303.593	462.05
303.819	460.16
304.046	458.83
304.272	458.34
304.499	457.58
304.725	457.65
304.952	457.28
305.179	457.81
305.405	458.47
305.631	457.87
305.858	459.07
306.084	459.58
306.311	461.27
306.537	460.83
306.764	460.58
306.99	460.65
307.216	459.87
307.443	460.38
307.669	459.81
307.895	459.28
308.122	458.72
308.348	456.25
308.574	455.58
308.801	455.18
309.027	454.19
309.253	453.12
309.479	452.3
309.706	452.1
309.932	451.12
310.158	450.39
310.384	449.61
310.61	449.18
310.837	450.36
311.063	450.59
311.289	450.61
311.515	451.38
311.741	449.85
311.967	450.16
312.193	450.12
312.419	450.39
312.645	450.05
312.871	450.72
313.097	451.85
313.323	452.56
313.549	452.79
313.775	452.45
314.001	452.21
314.227	453.96
314.453	453.72
314.679	453.45
314.905	454.3
315.131	455.56
315.357	455.76
315.583	456.81
315.809	456.01
316.034	456.68
316.26	457.01
316.486	458.19
316.712	458.67
316.938	458.47
317.163	459.65
317.389	460.12
317.615	460.83
317.841	461.3
318.066	460.7
318.292	461.25
318.518	462.21
318.743	462.47
318.969	462.94
319.195	464.63
319.42	465.23
319.646	466.28
319.872	466.19
320.097	465.63
320.323	466.76
320.548	468.27
320.774	469.23
320.999	469.07
321.225	471.3
321.45	471.85
321.676	472.07
321.901	473.78
322.127	475.87
322.352	477.94
322.578	479.19
322.803	480.47
323.029	481.38
323.254	482.36
323.479	483.96
323.705	485.19
323.93	486.85
324.155	488.83
324.381	490.78
324.606	490.98
324.831	493.52
325.057	495.58
325.282	498.21
325.507	501.43
325.732	504.39
325.958	507.48
326.183	508.94
326.408	511.14
326.633	512.25
326.858	514.3
327.084	517.1
327.309	517.78
327.534	520.43
327.759	524.16
327.984	525.76
328.209	528.16
328.434	530.25
328.659	533.56
328.884	536.03
329.109	540.18
329.334	542.98
329.559	546.79
329.784	550.16
330.009	554.16
330.234	557.78
330.459	560.1
330.684	564.07
330.909	567.87
331.134	571.76
331.359	577.23
331.584	581.08
331.809	585.28
332.034	590.25
332.259	594.1
332.483	597.83
332.708	600.99
332.933	607.63
333.158	611.01
333.383	616.23
333.607	620.3
333.832	624.43
334.057	629.27
334.282	634.1
334.506	637.78
334.731	643.81
334.956	650.18
335.18	654.52
335.405	658.83
335.63	666.03
335.854	671.43
336.079	678.16
336.303	683.56
336.528	689.19
336.753	695.08
336.977	701.85
337.202	707.98
337.426	714.47
337.651	720.96
337.875	727.68
338.1	734.12
338.324	740.14
338.549	746.38
338.773	754.54
338.997	760.79
339.222	768.58
339.446	774.67
339.671	783.27
339.895	789.94
340.119	798.78
340.344	806.21
340.568	812.34
340.792	819.12
341.017	826.48
341.241	833.88
341.465	842.45
341.689	850.96
341.914	859.14
342.138	866.05
342.362	874.47
342.586	883.41
342.811	891.67
343.035	901.94
343.259	911.23
343.483	921.05
343.707	930.76
343.931	940.7
344.155	949.36
344.38	958.45
344.604	967.81
344.828	976.23
345.052	984.38
345.276	994.54
345.5	1003.76
345.724	1013.83
345.948	1022.39
346.172	1031.52
346.396	1041.16
346.62	1051.39
346.844	1062.05
347.068	1072.7
347.292	1083.38
347.515	1091.99
347.739	1105.5
347.963	1113.39
348.187	1123.81
348.411	1134.63
348.635	1145.32
348.859	1155.78
349.082	1166.1
349.306	1177.12
349.53	1187.14
349.754	1198.68
349.977	1210.01
350.201	1218.9
350.425	1232.39
350.649	1244.1
350.872	1254.7
351.096	1264.21
351.32	1275.79
351.543	1286.1
351.767	1296.23
351.99	1306.48
352.214	1316.34
352.438	1327.28
352.661	1336.23
352.885	1346.83
353.108	1356.96
353.332	1369.16
353.555	1380.12
353.779	1390.07
354.002	1402.12
354.226	1413.47
354.449	1426.94
354.673	1438.72
354.896	1451.43
355.12	1464.79
355.343	1475.87
355.566	1487.78
355.79	1498.76
356.013	1512.39
356.237	1524.48
356.46	1537.34
356.683	1551.41
356.907	1562.47
357.13	1575.79
357.353	1588.14
357.576	1600.34
357.8	1614.45
358.023	1627.32
358.246	1642.12
358.469	1654.3
358.693	1668.38
358.916	1681.18
359.139	1691.43
359.362	1703.72
359.585	1715.88
359.808	1729.3
360.031	1740.65
360.255	1753.18
360.478	1766.65
360.701	1779.01
360.924	1791.59
361.147	1804.63
361.37	1817.5
361.593	1831.94
361.816	1847.48
362.039	1860.67
362.262	1873.67
362.485	1888.43
362.708	1899.94
362.931	1914.68
363.154	1925.48
363.377	1938.07
363.599	1951.19
363.822	1967.34
364.045	1982.78
364.268	1996.28
364.491	2011.36
364.714	2024.41
364.936	2039.48
365.159	2055.07
365.382	2068.81
365.605	2085.87
365.828	2105.16
366.05	2118.92
366.273	2132.14
366.496	2145.25
366.718	2160.16
366.941	2174.05
367.164	2192.05
367.386	2206.03
367.609	2223.28
367.832	2238.32
368.054	2255.48
368.277	2269.88
368.5	2287.54
368.722	2303.28
368.945	2322.9
369.167	2338.54
369.39	2354.47
369.612	2369.19
369.835	2387.61
370.057	2403.78
370.28	2420.34
370.502	2435.5
370.725	2450.36
370.947	2466.85
371.169	2484.39
371.392	2499.03
371.614	2516.21
371.837	2533.98
372.059	2553.32
372.281	2569.54
372.504	2584.76
372.726	2602.38
372.948	2620.27
373.171	2638.18
373.393	2655.74
373.615	2672.05
373.837	2688.5
374.06	2705.72
374.282	2726.12
374.504	2742.92
374.726	2761.07
374.948	2779.68
375.17	2798.41
375.393	2817.39
375.615	2837.79
375.837	2855.59
376.059	2876.94
376.281	2895.28
376.503	2914.78
376.725	2933.27
376.947	2951.63
377.169	2973.03
377.391	2992.16
377.613	3010.21
377.835	3033.21
378.057	3051.63
378.279	3075.16
378.501	3095.81
378.723	3118.67
378.945	3142.01
379.167	3163.25
379.389	3182.58
379.611	3206.14
379.833	3230.38
380.054	3254.76
380.276	3273.83
380.498	3296.92
380.72	3318.59
380.942	3341.87
381.163	3365.88
381.385	3389.07
381.607	3412.68
381.829	3440.39
382.05	3461.61
382.272	3488.3
382.494	3515.14
382.716	3540.63
382.937	3565.07
383.159	3589.99
383.381	3613.23
383.602	3639.39
383.824	3663.92
384.045	3690.23
384.267	3717.56
384.488	3743.78
384.71	3764.23
384.932	3789.28
385.153	3815.58
385.375	3844.83
385.596	3872.39
385.818	3900.78
386.039	3928.96
386.261	3955.47
386.482	3982.99
386.703	4007.7
386.925	4035.45
387.146	4066.36
387.368	4093.67
387.589	4122.1
387.81	4149.27
388.032	4176.48
388.253	4203.27
388.474	4232.18
388.696	4262.88
388.917	4290.72
389.138	4320.72
389.359	4348.14
389.581	4376.78
389.802	4405.67
390.023	4435.99
390.244	4465.07
390.465	4497.39
390.687	4524.88
390.908	4549.76
391.129	4577.5
391.35	4607.92
391.571	4638.94
391.792	4673.94
392.013	4705.18
392.234	4736.48
392.455	4766.52
392.677	4798.72
392.898	4823.88
393.119	4857.23
393.34	4893.03
393.561	4927.58
393.782	4963.03
394.003	4995.43
394.223	5024.28
394.444	5061.34
394.665	5092.48
394.886	5122.87
395.107	5156.14
395.328	5192.03
395.549	5225.65
395.77	5255.48
395.99	5285.45
396.211	5313.78
396.432	5347.78
396.653	5382.5
396.874	5412.56
397.094	5450.54
397.315	5484.54
397.536	5514.85
397.757	5548.05
397.977	5582.34
398.198	5616.1
398.419	5653.54
398.639	5690.9
398.86	5724.92
399.081	5756.58
399.301	5788.32
399.522	5822.28
399.742	5856.59
399.963	5895.94
400.184	5929.16
400.404	5966.74
400.625	6002.38
400.845	6035.85
401.066	6067.83
401.286	6100.58
401.507	6132.58
401.727	6171.41
401.948	6198.3
402.168	6232.92
402.388	6262.25
402.609	6299.18
402.829	6333.76
403.05	6368.07
403.27	6398.08
403.49	6433.03
403.711	6466.16
403.931	6505.05
404.151	6531.74
404.372	6568.16
404.592	6601.67
404.812	6634.56
405.032	6667.68
405.253	6693.61
405.473	6728.72
405.693	6763.81
405.913	6799.25
406.133	6831.48
406.353	6867.68
406.574	6910.7
406.794	6949.76
407.014	6987.88
407.234	7027.01
407.454	7062.1
407.674	7105.65
407.894	7138.85
408.114	7178.88
408.334	7216.56
408.554	7256.54
408.774	7293.05
408.994	7325.05
409.214	7358.47
409.434	7392.03
409.654	7428.05
409.874	7465.39
410.094	7500.19
410.314	7537.58
410.534	7572.3
410.754	7609.39
410.974	7646.87
411.193	7679.99
411.413	7717.19
411.633	7760.3
411.853	7797.67
412.073	7840.18
412.292	7878.41
412.512	7919.14
412.732	7960.14
412.952	7999.32
413.171	8037.98
413.391	8081.79
413.611	8126.45
413.831	8172.27
414.05	8209.88
414.27	8255.36
414.489	8296.61
414.709	8343.63
414.929	8381.85
415.148	8426.27
415.368	8474.3
415.587	8522.1
415.807	8562.34
416.026	8603.38
416.246	8644.27
416.465	8687.7
416.685	8730.18
416.904	8771.07
417.124	8812.16
417.343	8861.74
417.563	8899.88
417.782	8943.79
418.002	8980.27
418.221	9025.58
418.44	9073.34
418.66	9117.87
418.879	9165.39
419.098	9209.52
419.318	9251.56
419.537	9297.5
419.756	9337.16
419.976	9386.12
420.195	9426.85
420.414	9472.14
420.633	9514.1
420.853	9555.68
421.072	9599.48
421.291	9638.3
421.51	9684.01
421.729	9732.01
421.948	9774.07
422.168	9820.32
422.387	9862.21
422.606	9907.07
422.825	9948.18
423.044	9992.12
423.263	10040.01
423.482	10079.28
423.701	10126.54
423.92	10171.48
424.139	10212.87
424.358	10254.16
424.577	10298.67
424.796	10342.81
425.015	10387.76
425.234	10436.88
425.453	10484.58
425.672	10524.34
425.891	10574.88
426.11	10618.05
426.328	10663.5
426.547	10714.03
426.766	10761.85
426.985	10807.56
427.204	10858.67
427.422	10906.72
427.641	10955.54
427.86	11004.85
428.079	11057.7
428.297	11111.16
428.516	11165.74
428.735	11215.58
428.954	11262.98
429.172	11317.39
429.391	11366.45
429.61	11410.39
429.828	11457.81
430.047	11505.48
430.265	11551.3
430.484	11593.12
430.703	11634.94
430.921	11674.87
431.14	11715.36
431.358	11763.58
431.577	11807.12
431.795	11860.94
432.014	11916.3
432.232	11963.9
432.451	12015.39
432.669	12060.43
432.887	12111.48
433.106	12160.27
433.324	12208.58
433.543	12259.38
433.761	12303.67
433.979	12349.08
434.198	12387.65
434.416	12431.27
434.634	12475.85
434.853	12517.47
435.071	12565.47
435.289	12616.76
435.507	12660.39
435.726	12709.34
435.944	12760.65
436.162	12809.16
436.38	12851.96
436.598	12899.65
436.817	12943.63
437.035	12987.38
437.253	13033.54
437.471	13083.12
437.689	13125.54
437.907	13172.39
438.125	13219.56
438.343	13263.05
438.561	13308.68
438.78	13359.9
438.998	13408.21
439.216	13453.47
439.434	13508.81
439.652	13550.78
439.869	13597.78
440.087	13646.79
440.305	13699.08
440.523	13748.9
440.741	13797.63
440.959	13844.08
441.177	13896.79
441.395	13946.38
441.613	13996.67
441.831	14040.83
442.048	14092.85
442.266	14131.14
442.484	14174.63
442.702	14218.01
442.919	14263.34
443.137	14315.23
443.355	14369.03
443.573	14421.45
443.79	14467.88
444.008	14519.63
444.226	14572.28
444.443	14626.58
444.661	14681.08
444.879	14730.21
445.096	14782.32
445.314	14831.83
445.532	14875.98
445.749	14914.27
445.967	14955.92
446.184	15003.05
446.402	15048.21
446.619	15091.94
446.837	15135.3
447.054	15187.61
447.272	15230.39
447.489	15278.1
447.707	15324.28
447.924	15373.5
448.141	15422.83
448.359	15465.39
448.576	15517.81
448.794	15569.32
449.011	15619.94
449.228	15672.54
449.446	15719.19
449.663	15771.74
449.88	15815.96
450.098	15866.54
450.315	15910.61
450.532	15968.45
450.749	16021.99
450.967	16070.63
451.184	16119.56
451.401	16169.76
451.618	16215.59
451.835	16259.76
452.052	16311.05
452.27	16361.01
452.487	16404.43
452.704	16450.76
452.921	16491.14
453.138	16538.16
453.355	16580.99
453.572	16626.76
453.789	16670.87
454.006	16720.23
454.223	16768.5
454.44	16809.3
454.657	16854.19
454.874	16901.41
455.091	16950.94
455.308	16997.92
455.525	17047.19
455.742	17095.99
455.959	17140.08
456.176	17189.94
456.393	17238.27
456.609	17288.23
456.826	17341.34
457.043	17387.47
457.26	17435.01
457.477	17478.94
457.693	17525.39
457.91	17567.88
458.127	17606.25
458.344	17654.96
458.56	17696.61
458.777	17729.72
458.994	17769.63
459.21	17806.08
459.427	17839.56
459.644	17872.14
459.86	17911.9
460.077	17948.5
460.294	17981.61
460.51	18021.9
460.727	18050.3
460.943	18081.99
461.16	18118.96
461.376	18148.19
461.593	18182.36
461.809	18227.01
462.026	18269.23
462.242	18304.32
462.459	18342.88
462.675	18389.12
462.892	18432.58
463.108	18480.88
463.324	18517.3
463.541	18557.03
463.757	18606.1
463.974	18653.99
464.19	18699.7
464.406	18752.87
464.623	18801.98
464.839	18852.45
465.055	18890.81
465.271	18935.21
465.488	18980.87
465.704	19030.81
465.92	19077.83
466.136	19126.56
466.353	19176.14
466.569	19225.85
466.785	19271.47
467.001	19331.25
467.217	19381.08
467.433	19438.88
467.649	19488.47
467.865	19543.79
468.082	19609.38
468.298	19679.74
468.514	19735.01
468.73	19800.78
468.946	19865.27
469.162	19934.23
469.378	19991.79
469.594	20056.83
469.81	20118.36
470.026	20185.56
470.242	20248.58
470.457	20309.41
470.673	20371.18
470.889	20441.85
471.105	20504.45
471.321	20568.47
471.537	20628.72
471.753	20692.78
471.968	20766.99
472.184	20837.01
472.4	20918.32
472.616	20992.47
472.832	21069.83
473.047	21139.67
473.263	21212.85
473.479	21286.78
473.694	21359.76
473.91	21432.65
474.126	21505.34
474.341	21574.3
474.557	21656.56
474.773	21718.54
474.988	21783.14
475.204	21854.5
475.42	21933.47
475.635	22007.94
475.851	22076.98
476.066	22148.98
476.282	22217.08
476.497	22287.01
476.713	22360.18
476.928	22421.7
477.144	22493.65
477.359	22564.76
477.575	22623.54
477.79	22682.92
478.005	22739.83
478.221	22802.9
478.436	22865.18
478.651	22928.19
478.867	22984.81
479.082	23030.87
479.297	23087.81
479.513	23143.59
479.728	23192.83
479.943	23245.98
480.159	23303.08
480.374	23356.12
480.589	23408.79
480.804	23462.1
481.019	23511.63
481.235	23565.7
481.45	23623.68
481.665	23673.59
481.88	23719.28
482.095	23775.34
482.31	23829.83
482.525	23883.7
482.741	23940.85
482.956	23990.88
483.171	24042.52
483.386	24092.43
483.601	24144.45
483.816	24191.03
484.031	24233.59
484.246	24279.63
484.461	24325.16
484.676	24369.61
484.891	24404.79
485.105	24447.65
485.32	24488.19
485.535	24524.56
485.75	24563.72
485.965	24602.21
486.18	24643.54
486.395	24687.79
486.609	24730.12
486.824	24772.98
487.039	24815.25
487.254	24859.27
487.469	24895.81
487.683	24938.52
487.898	24969.01
488.113	25009.56
488.327	25048.43
488.542	25089.63
488.757	25130.38
488.972	25173.36
489.186	25211.54
489.401	25243.23
489.615	25272.85
489.83	25306.43
490.045	25334.61
490.259	25374.74
490.474	25404.47
490.688	25439.98
490.903	25466.16
491.117	25492.52
491.332	25509.99
491.546	25532.59
491.761	25566.38
491.975	25602.74
492.19	25634.56
492.404	25667.5
492.618	25703.68
492.833	25738.47
493.047	25766.68
493.262	25802.36
493.476	25832.16
493.69	25873.03
493.905	25913.74
494.119	25947.28
494.333	25971.1
494.547	25998.27
494.762	26024.41
494.976	26039.88
495.19	26075.78
495.404	26095.1
495.619	26116.27
495.833	26143.47
496.047	26161.59
496.261	26175.88
496.475	26186.28
496.689	26201.34
496.903	26212.61
497.117	26222.61
497.332	26228.87
497.546	26213.78
497.76	26212.12
497.974	26197.34
498.188	26185.18
498.402	26179.1
498.616	26159.78
498.83	26149.19
499.044	26132.25
499.258	26125.63
499.472	26117.43
499.685	26117.88
499.899	26125.3
500.113	26136.1
500.327	26152.59
500.541	26164.41
500.755	26178.23
500.969	26201.14
501.183	26217.56
501.396	26241.54
501.61	26261.39
501.824	26280.18
502.038	26303.94
502.251	26326.94
502.465	26341.21
502.679	26358.96
502.892	26378.03
503.106	26390.36
503.32	26403.63
503.533	26426.03
503.747	26445.39
503.961	26465.28
504.174	26491.41
504.388	26524.36
504.602	26551.5
504.815	26589.38
505.029	26630.27
505.242	26675.54
505.456	26724.39
505.669	26772.23
505.883	26819.38
506.096	26874.87
506.31	26931.58
506.523	26980.96
506.736	27020.45
506.95	27073.76
507.163	27123.65
507.377	27181.79
507.59	27239.92
507.803	27296.45
508.017	27366.28
508.23	27433.76
508.443	27495.78
508.657	27558.12
508.87	27621.92
509.083	27694.43
509.296	27768.81
509.51	27859.28
509.723	27929.7
509.936	28005.28
510.149	28089.3
510.363	28168.19
510.576	28252.99
510.789	28344.32
511.002	28434.23
511.215	28539.61
511.428	28641.1
511.641	28737.5
511.854	28820.21
512.067	28922.07
512.28	29021.9
512.493	29121.78
512.707	29227.07
512.92	29323.12
513.132	29423.87
513.345	29525.67
513.558	29627.36
513.771	29732.98
513.984	29833.74
514.197	29949.41
514.41	30060.05
514.623	30173.1
514.836	30282.21
515.049	30388.07
515.262	30494.61
515.474	30600.21
515.687	30702.45
515.9	30810.48
516.113	30905.98
516.325	31007.56
516.538	31086.34
516.751	31172.96
516.964	31258.12
517.176	31342.85
517.389	31429.98
517.602	31516.12
517.814	31590.07
518.027	31670.83
518.24	31741.65
518.452	31823.59
518.665	31889.34
518.877	31979.74
519.09	32053.59
519.303	32123.63
519.515	32199.36
519.728	32259.38
519.94	32326.39
520.153	32402.96
520.365	32472.08
520.578	32533.9
520.79	32590.39
521.002	32664.19
521.215	32717.99
521.427	32772.85
521.64	32824.81
521.852	32876.87
522.064	32925.19
522.277	32976.03
522.489	33032.48
522.701	33086.23
522.914	33137.18
523.126	33190.32
523.338	33242.47
523.551	33290.19
523.763	33341.45
523.975	33399.98
524.187	33444.43
524.399	33492.27
524.612	33541.38
524.824	33574.45
525.036	33605.08
525.248	33650.21
525.46	33684.92
525.672	33715.12
525.884	33760.41
526.096	33797.59
526.308	33832.27
526.521	33862.39
526.733	33899.96
526.945	33926.47
527.157	33962.67
527.369	34001.7
527.581	34028.88
527.793	34056.96
528.004	34087.96
528.216	34109.76
528.428	34135.23
528.64	34158.47
528.852	34193.74
529.064	34222.59
529.276	34259.61
529.488	34279.01
529.699	34302.48
529.911	34328.96
530.123	34368.18
530.335	34392.34
530.547	34426.01
530.758	34447.07
530.97	34476.28
531.182	34507.1
531.393	34547.05
531.605	34564.99
531.817	34610.36
532.029	34645.14
532.24	34677.52
532.452	34692.58
532.663	34723.14
532.875	34740.34
533.087	34771.9
533.298	34793.65
533.51	34814.7
533.721	34823.81
533.933	34851.87
534.144	34864.47
534.356	34880.38
534.567	34896.03
534.779	34920.78
534.99	34933.16
535.202	34952.61
535.413	34973.78
535.624	34989.92
535.836	35003.76
536.047	35026.08
536.259	35038.21
536.47	35043.56
536.681	35055.78
536.893	35065.7
537.104	35067.38
537.315	35077.87
537.526	35091.16
537.738	35102.34
537.949	35113.87
538.16	35122.47
538.371	35130.76
538.582	35143.94
538.794	35174.38
539.005	35191.07
539.216	35212.65
539.427	35236.76
539.638	35262.59
539.849	35279.83
540.06	35287.39
540.272	35307.96
540.483	35324.56
540.694	35335.83
540.905	35351.43
541.116	35349.78
541.327	35360.21
541.538	35367.54
541.749	35379.05
541.96	35380.81
542.17	35389.98
542.381	35402.32
542.592	35412.07
542.803	35417.38
543.014	35417.9
543.225	35416.34
543.436	35427.61
543.647	35437.92
543.857	35450.36
544.068	35463.56
544.279	35477.48
544.49	35479.94
544.701	35486.3
544.911	35489.27
545.122	35503.34
545.333	35517.9
545.543	35538.25
545.754	35546.5
545.965	35551.98
546.175	35557.96
546.386	35563.88
546.597	35570.48
546.807	35574.74
547.018	35586.9
547.229	35588.61
547.439	35585.03
547.65	35593.56
547.86	35591.21
548.071	35590.96
548.281	35598.47
548.492	35607.39
548.702	35615.48
548.913	35619.07
549.123	35635.81
549.333	35646.9
549.544	35653.68
549.754	35668.68
549.965	35682.65
550.175	35694.88
550.385	35709.67
550.596	35722.25
550.806	35731.36
551.016	35732.99
551.227	35736.3
551.437	35747.99
551.647	35743.78
551.857	35762.18
552.068	35774.27
552.278	35785.5
552.488	35791.87
552.698	35797.34
552.908	35802.74
553.119	35800.38
553.329	35806.7
553.539	35811.19
553.749	35799.67
553.959	35801.76
554.169	35789.32
554.379	35782.94
554.589	35773.5
554.799	35776.19
555.009	35773.74
555.219	35764.12
555.429	35759.85
555.639	35751.3
555.849	35756.56
556.059	35753.68
556.269	35759.63
556.479	35755.41
556.689	35752.83
556.899	35751.34
557.109	35746.18
557.319	35744.1
557.528	35743.87
557.738	35747.23
557.948	35742.16
558.158	35725.27
558.368	35715.19
558.577	35691.85
558.787	35691.72
558.997	35687.85
559.207	35676.58
559.416	35667.3
559.626	35648.7
559.836	35633.45
560.045	35624.92
560.255	35629.72
560.465	35633.12
560.674	35636.98
560.884	35650.38
561.093	35643.41
561.303	35618.23
561.512	35609.9
561.722	35587.43
561.932	35590.76
562.141	35586.47
562.351	35570.48
562.56	35555.14
562.769	35548.98
562.979	35551.81
563.188	35544.14
563.398	35541.48
563.607	35548.65
563.817	35547.05
564.026	35557.58
564.235	35551.21
564.445	35549.38
564.654	35552.1
564.863	35548.63
565.073	35533.03
565.282	35515.81
565.491	35490.48
565.7	35475.54
565.91	35464.9
566.119	35446.01
566.328	35425.74
566.537	35407.45
566.746	35385.72
566.956	35363.34
567.165	35353.34
567.374	35342.01
567.583	35325.48
567.792	35321.98
568.001	35302.83
568.21	35281.48
568.419	35264.92
568.628	35241.08
568.837	35205.96
569.046	35184.9
569.255	35157.32
569.464	35115.08
569.673	35085.39
569.882	35049.1
570.091	35022.5
570.3	34993.76
570.509	34966.63
570.718	34951.43
570.927	34940.85
571.135	34940.74
571.344	34927.85
571.553	34921.85
571.762	34921.38
571.971	34916.39
572.18	34909.03
572.388	34889.05
572.597	34871.61
572.806	34857.7
573.014	34832.38
573.223	34808.25
573.432	34782.41
573.641	34753.43
573.849	34723.83
574.058	34699.41
574.266	34666.1
574.475	34648.68
574.684	34628.47
574.892	34621.36
575.101	34599.21
575.309	34571.01
575.518	34560.5
575.726	34541.07
575.935	34521.48
576.143	34515.23
576.352	34499.43
576.56	34481.12
576.769	34456.12
576.977	34437.81
577.186	34417.78
577.394	34403.32
577.602	34387.99
577.811	34356.59
578.019	34340.47
578.228	34326.47
578.436	34291.25
578.644	34258.81
578.852	34230.36
579.061	34199.98
579.269	34170.43
579.477	34139.87
579.685	34114.61
579.894	34098.43
580.102	34078.68
580.31	34049.59
580.518	34019.5
580.726	33998.74
580.935	33973.27
581.143	33959.96
581.351	33935.81
581.559	33913.61
581.767	33889.03
581.975	33861.63
582.183	33832.59
582.391	33804.54
582.599	33778.59
582.807	33762.05
583.015	33734.12
583.223	33707.68
583.431	33679.68
583.639	33665.78
583.847	33645.63
584.055	33625.27
584.263	33596.43
584.471	33569.05
584.678	33546.74
584.886	33524.9
585.094	33498.52
585.302	33473.39
585.51	33455.85
585.718	33433.23
585.925	33412.12
586.133	33386.38
586.341	33358.72
586.549	33351.48
586.756	33325.14
586.964	33304.18
587.172	33276.19
587.379	33239.19
587.587	33221.19
587.795	33185.92
588.002	33158.36
588.21	33126.1
588.417	33095.27
588.625	33061.85
588.833	33026.27
589.04	33003.52
589.248	32969.98
589.455	32956.19
589.663	32944.79
589.87	32913.92
590.078	32901.27
590.285	32872.63
590.492	32845.96
590.7	32830.45
590.907	32812.76
591.115	32773.12
591.322	32746.01
591.529	32727.47
591.737	32695.54
591.944	32659.76
592.151	32633.81
592.359	32598.78
592.566	32566.83
592.773	32536.99
592.981	32507.1
593.188	32474.94
593.395	32454.67
593.602	32421.56
593.809	32382.78
594.017	32353.79
594.224	32332.1
594.431	32299.27
594.638	32262.72
594.845	32233.07
595.052	32196.59
595.259	32156.94
595.466	32131.87
595.673	32106.1
595.88	32082.38
596.088	32065.92
596.295	32026.54
596.502	31993.36
596.709	31963.85
596.915	31946.9
597.122	31916.07
597.329	31887.01
597.536	31861.88
597.743	31834.01
597.95	31791.58
598.157	31757.48
598.364	31704.01
598.571	31664.63
598.777	31621.03
598.984	31560.25
599.191	31493.88
599.398	31448.41
599.605	31400.94
599.811	31350.68
600.018	31290.58
600.225	31241.03
600.431	31184.41
600.638	31147.19
600.845	31111.34
601.052	31064.19
601.258	31038.34
601.465	31001.83
601.671	30951.99
601.878	30888.54
602.085	30795.85
602.291	30690.76
602.498	30574.08
602.704	30443.63
602.911	30282.43
603.117	30099.07
603.324	29899.72
603.53	29685.72
603.737	29453.83
603.943	29211.68
604.15	28962.76
604.356	28716.85
604.562	28464.25
604.769	28207.79
604.975	27946.41
605.181	27684.12
605.388	27421.01
605.594	27169.54
605.8	26911.45
606.007	26647.54
606.213	26380.83
606.419	26119.32
606.625	25854.54
606.832	25591.01
607.038	25329.9
607.244	25061.88
607.45	24794.39
607.656	24534.25
607.863	24262.28
608.069	23984.78
608.275	23720.54
608.481	23456.43
608.687	23186.48
608.893	22915.16
609.099	22644.98
609.305	22375.61
609.511	22100.38
609.717	21833.19
609.923	21545.54
610.129	21257.28
610.335	20968.68
610.541	20676.19
610.747	20386.12
610.953	20089.63
611.159	19791.72
611.365	19493.99
611.571	19186.14
611.776	18881.39
611.982	18566.88
612.188	18263.34
612.394	17959.14
612.6	17649.99
612.806	17343.83
613.011	17032.56
613.217	16714.83
613.423	16405.87
613.628	16094.39
613.834	15793.96
614.04	15500.87
614.246	15210.5
614.451	14920.34
614.657	14641.12
614.862	14374.23
615.068	14110.18
615.274	13845.61
615.479	13601.03
615.685	13357.59
615.89	13119.41
616.096	12874.45
616.301	12629.63
616.507	12387.07
616.712	12145.01
616.918	11893.59
617.123	11640.81
617.329	11383.72
617.534	11125.65
617.74	10858.63
617.945	10587.81
618.15	10305.25
618.356	9874.3
618.561	9080.36
618.766	8119.3
618.972	7128.99
619.177	6167.43
619.382	5228.68
619.588	4315.1
619.793	3769.95
619.998	3135.69
620.203	2375.89
620.408	1451.9
620.614	540.1
