Data from test1_MAYP1115451__75__10-17-34-620.txt Node

Date: Wed Jun 12 10:17:34 MDT 2024
User: Modes Lab
Spectrometer: MAYP111545
Trigger mode: 0
Integration Time (sec): 8.000000E-3
Scans to average: 5
Electric dark correction enabled: true
Nonlinearity correction enabled: false
Boxcar width: 5
XAxis mode: Wavelengths
Number of Pixels in Spectrum: 2068
>>>>>Begin Spectral Data<<<<<
165.214	162.83
165.449	162.99
165.683	172.61
165.918	181.29
166.152	188.35
166.387	193.22
166.621	125.28
166.856	164.06
167.09	182.79
167.325	206.08
167.559	221.79
167.794	235.97
168.028	243.35
168.263	244.53
168.497	244.19
168.732	244.53
168.966	245.35
169.2	246.61
169.435	248.12
169.669	249.46
169.903	250.84
170.138	253.06
170.372	254.48
170.606	256.59
170.841	258.01
171.075	260.21
171.309	261.44
171.544	262.81
171.778	265.08
172.012	266.24
172.246	267.95
172.48	270.39
172.715	273.37
172.949	275.88
173.183	276.52
173.417	277.73
173.651	278.73
173.885	280.3
174.119	281.99
174.354	281.77
174.588	282.42
174.822	283.19
175.056	282.95
175.29	281.62
175.524	281.02
175.758	281.26
175.992	281.82
176.226	282.24
176.46	281.59
176.694	282.53
176.928	282.86
177.162	283.24
177.396	284.1
177.63	285.42
177.864	286.79
178.097	288.19
178.331	289.48
178.565	289.9
178.799	290.37
179.033	292.15
179.267	291.52
179.5	293.1
179.734	294.22
179.968	295.21
180.202	295.5
180.436	297.13
180.669	296.79
180.903	298.19
181.137	299.42
181.371	300.84
181.604	301.66
181.838	303.57
182.072	305.1
182.305	306.1
182.539	307.1
182.772	307.99
183.006	307.72
183.24	308.84
183.473	312.55
183.707	313.41
183.94	313.86
184.174	315.55
184.408	316.62
184.641	317.1
184.875	318.35
185.108	319.37
185.342	321.04
185.575	322.44
185.808	323.5
186.042	321.92
186.275	323.59
186.509	324.5
186.742	325.41
186.976	325.68
187.209	327.32
187.442	329.24
187.676	330.19
187.909	331.75
188.142	332.46
188.376	333.86
188.609	335.57
188.842	336.24
189.076	339.44
189.309	340.41
189.542	343.22
189.775	345.21
190.009	345.66
190.242	347.72
190.475	348.37
190.708	350.95
190.941	354.32
191.174	356.26
191.408	358.19
191.641	359.21
191.874	361.12
192.107	363.52
192.34	365.32
192.573	367.72
192.806	369.82
193.039	372.35
193.272	373.64
193.505	375.02
193.738	376.46
193.971	378.37
194.204	380.37
194.437	381.28
194.67	382.06
194.903	383.62
195.136	384.53
195.369	386.62
195.602	387.86
195.835	390.59
196.068	391.93
196.301	393.48
196.533	396.39
196.766	397.77
196.999	400.72
197.232	402.02
197.465	403.66
197.698	406.95
197.93	409.3
198.163	411.42
198.396	413.81
198.629	416.93
198.861	418.42
199.094	418.81
199.327	420.64
199.559	422.3
199.792	425.35
200.025	427.55
200.257	430.02
200.49	430.86
200.723	433.3
200.955	434.26
201.188	435.57
201.42	439.73
201.653	442.46
201.886	445.48
202.118	448.48
202.351	450.93
202.583	453.92
202.816	455.42
203.048	457.13
203.281	459.24
203.513	461.19
203.745	463.7
203.978	464.02
204.21	466.37
204.443	469.01
204.675	470.12
204.907	472.1
205.14	473.92
205.372	475.5
205.605	478.52
205.837	480.61
206.069	483.42
206.302	484.02
206.534	485.41
206.766	486.81
206.998	487.99
207.231	491.1
207.463	493.52
207.695	494.9
207.927	498.15
208.159	501.06
208.392	502.72
208.624	505.48
208.856	508.86
209.088	513.13
209.32	515.95
209.552	517.57
209.784	519.66
210.017	521.84
210.249	524.53
210.481	526.62
210.713	527.82
210.945	530.79
211.177	532.04
211.409	533.19
211.641	534.32
211.873	536.41
212.105	539.33
212.337	540.77
212.569	542.17
212.801	543.88
213.033	545.06
213.264	548.08
213.496	550.46
213.728	552.9
213.96	555.48
214.192	557.26
214.424	559.53
214.656	560.92
214.887	562.97
215.119	564.57
215.351	567.7
215.583	569.44
215.815	571.24
216.046	572.22
216.278	573.37
216.51	574.7
216.741	576.17
216.973	577.04
217.205	578.92
217.436	580.19
217.668	583.19
217.9	582.39
218.131	583.84
218.363	583.93
218.595	585.62
218.826	586.99
219.058	588.82
219.289	589.64
219.521	591.97
219.752	592.37
219.984	593.64
220.215	593.55
220.447	594.93
220.678	596.62
220.91	598.08
221.141	598.97
221.373	600.9
221.604	601.7
221.836	602.82
222.067	603.7
222.298	605.02
222.53	606.72
222.761	607.66
222.993	609.24
223.224	609.44
223.455	610.37
223.686	610.57
223.918	611.9
224.149	613.04
224.38	613.77
224.612	613.88
224.843	614.3
225.074	614.7
225.305	615.57
225.536	616.13
225.768	616.92
225.999	617.19
226.23	618.48
226.461	615.59
226.692	615.19
226.923	616.5
227.155	619.62
227.386	620.62
227.617	620.79
227.848	620.64
228.079	622.22
228.31	622.55
228.541	623.99
228.772	624.97
229.003	627.19
229.234	628.35
229.465	627.5
229.696	624.9
229.927	623.75
230.158	624.02
230.389	624.01
230.62	622.53
230.85	621.93
231.081	619.93
231.312	618.9
231.543	619.9
231.774	620.08
232.005	621.3
232.236	621.93
232.466	623.26
232.697	624.01
232.928	625.1
233.159	624.82
233.389	625.7
233.62	627.35
233.851	626.46
234.082	625.3
234.312	624.99
234.543	624.55
234.774	623.59
235.004	623.68
235.235	622.75
235.466	621.41
235.696	622.17
235.927	622.26
236.157	620.32
236.388	620.15
236.618	620.99
236.849	621.68
237.08	621.44
237.31	621.13
237.541	620.68
237.771	620.97
238.002	621.15
238.232	621.1
238.463	620.93
238.693	621.93
238.923	622.53
239.154	622.02
239.384	620.95
239.615	620.33
239.845	619.7
240.075	618.93
240.306	616.93
240.536	616.84
240.766	615.42
240.997	614.97
241.227	614.59
241.457	615.13
241.687	614.53
241.918	613.55
242.148	613.82
242.378	614.02
242.608	614.95
242.839	614.77
243.069	613.15
243.299	612.99
243.529	612.88
243.759	613.12
243.989	611.13
244.22	609.79
244.45	609.17
244.68	607.41
244.91	607.24
245.14	604.75
245.37	603.79
245.6	603.9
245.83	603.57
246.06	601.55
246.29	600.48
246.52	601.13
246.75	600.75
246.98	601.13
247.21	601.15
247.44	600.28
247.67	600.53
247.9	600.24
248.13	599.57
248.359	598.75
248.589	598.3
248.819	596.59
249.049	596.04
249.279	595.72
249.509	594.41
249.738	594.06
249.968	593.73
250.198	593.57
250.428	594.32
250.657	593.93
250.887	593.77
251.117	593.81
251.347	594.33
251.576	592.26
251.806	592.32
252.036	592.1
252.265	591.61
252.495	590.26
252.725	589.35
252.954	588.73
253.184	587.95
253.413	587.61
253.643	586.64
253.873	585.81
254.102	586.26
254.332	585.64
254.561	584.5
254.791	583.21
255.02	583.39
255.25	584.24
255.479	583.22
255.708	582.52
255.938	581.73
256.167	582.13
256.397	581.28
256.626	580.86
256.856	579.13
257.085	577.48
257.314	577.59
257.544	576.72
257.773	575.33
258.002	575.3
258.232	574.04
258.461	572.95
258.69	571.02
258.919	569.81
259.149	568.52
259.378	568.44
259.607	569.41
259.836	569.62
260.065	569.3
260.295	567.59
260.524	566.44
260.753	566.72
260.982	566.01
261.211	566.01
261.44	565.79
261.669	565.3
261.899	564.53
262.128	563.75
262.357	561.08
262.586	560.26
262.815	559.02
263.044	558.92
263.273	560.93
263.502	559.95
263.731	559.41
263.96	558.97
264.189	557.44
264.418	556.28
264.646	555.13
264.875	555.44
265.104	554.95
265.333	554.32
265.562	553.13
265.791	547.92
266.02	546.82
266.249	546.39
266.477	545.04
266.706	545.33
266.935	544.46
267.164	543.84
267.393	542.04
267.621	541.41
267.85	541.55
268.079	541.15
268.307	542.33
268.536	542.17
268.765	540.24
268.993	539.9
269.222	538.95
269.451	538.28
269.679	537.26
269.908	538.02
270.137	537.22
270.365	536.41
270.594	535.59
270.822	535.01
271.051	535.55
271.279	536.53
271.508	536.84
271.736	538.02
271.965	539.97
272.193	540.68
272.422	540.06
272.65	540.39
272.879	541.66
273.107	543.12
273.336	543.48
273.564	543.75
273.792	542.52
274.021	540.39
274.249	538.75
274.477	536.92
274.706	535.48
274.934	534.13
275.162	532.84
275.391	530.53
275.619	528.24
275.847	527.04
276.075	525.44
276.304	524.02
276.532	524.61
276.76	523.19
276.988	522.59
277.216	522.41
277.445	521.81
277.673	520.5
277.901	520.35
278.129	520.12
278.357	519.41
278.585	517.68
278.813	518.32
279.041	517.57
279.269	517.59
279.497	516.53
279.725	515.7
279.954	515.32
280.182	514.68
280.41	514.12
280.637	512.86
280.865	511.88
281.093	511.66
281.321	510.7
281.549	509.88
281.777	509.24
282.005	508.92
282.233	507.57
282.461	507.04
282.689	507.13
282.916	505.84
283.144	506.06
283.372	506.17
283.6	505.5
283.828	504.66
284.055	504.53
284.283	504.81
284.511	503.75
284.739	504.68
284.966	505.22
285.194	504.02
285.422	503.84
285.649	502.88
285.877	501.61
286.105	502.26
286.332	502.64
286.56	501.9
286.788	500.92
287.015	500.68
287.243	499.82
287.47	498.68
287.698	497.75
287.925	498.26
288.153	497.62
288.381	496.7
288.608	495.04
288.836	494.55
289.063	494.7
289.29	494.08
289.518	494.24
289.745	493.19
289.973	492.55
290.2	493.28
290.428	491.77
290.655	490.52
290.882	490.82
291.11	490.79
291.337	489.5
291.564	488.46
291.792	486.99
292.019	486.13
292.246	485.52
292.473	484.99
292.701	484.08
292.928	483.75
293.155	484.21
293.382	482.79
293.61	481.57
293.837	480.9
294.064	481.1
294.291	480.81
294.518	479.35
294.745	478.86
294.972	478.81
295.2	478.12
295.427	477.73
295.654	476.37
295.881	476.42
296.108	475.86
296.335	476.48
296.562	475.46
296.789	475.88
297.016	476.37
297.243	477.41
297.47	476.24
297.697	475.72
297.924	475.3
298.151	473.57
298.378	473.86
298.604	474.08
298.831	472.77
299.058	472.79
299.285	472.1
299.512	471.17
299.739	469.35
299.966	468.77
300.192	468.37
300.419	468.68
300.646	469.52
300.873	468.7
301.099	468.15
301.326	466.01
301.553	465.32
301.78	466.1
302.006	464.64
302.233	464.19
302.46	463.59
302.686	463.21
302.913	462.46
303.14	462.06
303.366	461.82
303.593	462.32
303.819	463.12
304.046	462.37
304.272	460.53
304.499	461.53
304.725	461.84
304.952	460.99
305.179	460.86
305.405	459.9
305.631	459.57
305.858	459.02
306.084	456.95
306.311	457.35
306.537	456.82
306.764	456.68
306.99	456.44
307.216	456.7
307.443	457.04
307.669	456.99
307.895	455.61
308.122	455.97
308.348	455.17
308.574	455.5
308.801	454.52
309.027	454.33
309.253	454.01
309.479	452.99
309.706	452.55
309.932	452.79
310.158	451.42
310.384	452.04
310.61	450.73
310.837	450.81
311.063	450.88
311.289	450.9
311.515	450.52
311.741	449.84
311.967	450.73
312.193	450.13
312.419	450.21
312.645	451.55
312.871	451.01
313.097	451.93
313.323	451.93
313.549	452.62
313.775	453.01
314.001	454.66
314.227	454.66
314.453	455.01
314.679	454.95
314.905	455.39
315.131	455.26
315.357	456.17
315.583	454.57
315.809	455.28
316.034	455.73
316.26	455.88
316.486	455.22
316.712	455.48
316.938	454.93
317.163	455.24
317.389	454.35
317.615	455.66
317.841	456.7
318.066	458.06
318.292	458.73
318.518	458.08
318.743	458.1
318.969	458.79
319.195	459.79
319.42	459.77
319.646	460.57
319.872	462.41
320.097	462.33
320.323	462.57
320.548	464.57
320.774	466.3
320.999	467.82
321.225	469.5
321.45	469.9
321.676	471.12
321.901	474.53
322.127	475.81
322.352	477.41
322.578	479.15
322.803	480.08
323.029	481.48
323.254	482.17
323.479	483.42
323.705	485.37
323.93	486.7
324.155	488.99
324.381	489.46
324.606	491.02
324.831	493.01
325.057	494.72
325.282	497.64
325.507	499.42
325.732	502.48
325.958	505.72
326.183	507.95
326.408	511.04
326.633	513.24
326.858	516.28
327.084	519.19
327.309	522.21
327.534	524.61
327.759	527.46
327.984	530.01
328.209	532.41
328.434	536.15
328.659	540.17
328.884	542.7
329.109	546.92
329.334	550.22
329.559	553.81
329.784	556.01
330.009	559.46
330.234	563.41
330.459	567.77
330.684	570.73
330.909	572.59
331.134	574.57
331.359	578.46
331.584	580.82
331.809	584.04
332.034	587.39
332.259	591.81
332.483	596.7
332.708	599.92
332.933	604.44
333.158	608.15
333.383	613.53
333.607	618.86
333.832	625.32
334.057	629.99
334.282	636.24
334.506	642.04
334.731	647.04
334.956	652.59
335.18	658.92
335.405	664.04
335.63	670.93
335.854	676.88
336.079	682.62
336.303	686.62
336.528	694.1
336.753	699.66
336.977	704.79
337.202	710.73
337.426	716.53
337.651	723.52
337.875	729.28
338.1	735.53
338.324	741.86
338.549	749.59
338.773	757.62
338.997	763.99
339.222	771.42
339.446	778.08
339.671	786.33
339.895	793.62
340.119	799.7
340.344	807.53
340.568	815.7
340.792	823.62
341.017	830.37
341.241	837.13
341.465	844.75
341.689	851.28
341.914	859.72
342.138	866.19
342.362	874.13
342.586	882.24
342.811	890.02
343.035	897.75
343.259	906.32
343.483	914.37
343.707	923.57
343.931	933.55
344.155	944.08
344.38	954.06
344.604	963.77
344.828	973.84
345.052	982.99
345.276	993.35
345.5	1002.9
345.724	1012.01
345.948	1022.7
346.172	1033.17
346.396	1041.7
346.62	1052.39
346.844	1060.93
347.068	1070.48
347.292	1079.72
347.515	1089.15
347.739	1099.95
347.963	1110.39
348.187	1120.61
348.411	1130.82
348.635	1141.7
348.859	1152.64
349.082	1161.84
349.306	1175.39
349.53	1186.95
349.754	1197.22
349.977	1209.72
350.201	1220.12
350.425	1230.3
350.649	1240.48
350.872	1252.32
351.096	1262.19
351.32	1272.68
351.543	1285.13
351.767	1296.13
351.99	1305.77
352.214	1316.55
352.438	1326.3
352.661	1335.79
352.885	1348.61
353.108	1360.57
353.332	1371.26
353.555	1384.41
353.779	1396.32
354.002	1406.62
354.226	1415.9
354.449	1429.77
354.673	1441.73
354.896	1455.33
355.12	1469.35
355.343	1480.15
355.566	1492.13
355.79	1503.59
356.013	1515.21
356.237	1526.57
356.46	1539.17
356.683	1551.92
356.907	1561.72
357.13	1575.35
357.353	1586.01
357.576	1596.93
357.8	1609.84
358.023	1623.12
358.246	1636.79
358.469	1648.84
358.693	1661.88
358.916	1673.99
359.139	1687.88
359.362	1702.9
359.585	1716.84
359.808	1732.01
360.031	1745.3
360.255	1757.68
360.478	1769.92
360.701	1783.26
360.924	1795.7
361.147	1810.39
361.37	1825.21
361.593	1838.95
361.816	1850.37
362.039	1860.73
362.262	1873.95
362.485	1888.59
362.708	1904.75
362.931	1919.3
363.154	1930.99
363.377	1942.73
363.599	1955.46
363.822	1967.7
364.045	1978.79
364.268	1993.68
364.491	2009.15
364.714	2021.62
364.936	2035.33
365.159	2049.33
365.382	2063.15
365.605	2079.48
365.828	2099.28
366.05	2112.41
366.273	2126.72
366.496	2144.1
366.718	2161.5
366.941	2176.81
367.164	2193.02
367.386	2208.35
367.609	2222.37
367.832	2237.79
368.054	2253.08
368.277	2266.24
368.5	2284.42
368.722	2300.99
368.945	2317.15
369.167	2332.75
369.39	2349.99
369.612	2367.9
369.835	2386.1
370.057	2402.57
370.28	2420.44
370.502	2436.99
370.725	2452.93
370.947	2469.88
371.169	2489.64
371.392	2505.28
371.614	2521.32
371.837	2536.77
372.059	2553.42
372.281	2567.66
372.504	2584.32
372.726	2597.41
372.948	2615.68
373.171	2632.99
373.393	2649.1
373.615	2663.08
373.837	2680.93
374.06	2699.12
374.282	2717.33
374.504	2732.53
374.726	2754.39
374.948	2773.26
375.17	2795.02
375.393	2810.59
375.615	2831.68
375.837	2849.35
376.059	2871.86
376.281	2891.21
376.503	2907.15
376.725	2927.35
376.947	2947.55
377.169	2966.46
377.391	2986.81
377.613	3008.9
377.835	3033.72
378.057	3052.15
378.279	3075.61
378.501	3094.52
378.723	3115.37
378.945	3139.82
379.167	3161.41
379.389	3185.75
379.611	3207.02
379.833	3228.5
380.054	3248.26
380.276	3269.75
380.498	3295.22
380.72	3319.32
380.942	3343.73
381.163	3371.84
381.385	3397.19
381.607	3420.04
381.829	3440.01
382.05	3462.01
382.272	3486.97
382.494	3512.81
382.716	3536.95
382.937	3559.66
383.159	3583.41
383.381	3606.61
383.602	3629.5
383.824	3653.3
384.045	3679.62
384.267	3708.13
384.488	3734.57
384.71	3761.82
384.932	3787.44
385.153	3813.61
385.375	3840.62
385.596	3867.22
385.818	3895.73
386.039	3920.46
386.261	3948.95
386.482	3979.53
386.703	4008.26
386.925	4038.57
387.146	4064.17
387.368	4090.57
387.589	4119.9
387.81	4147.79
388.032	4173.88
388.253	4202.21
388.474	4232.01
388.696	4261.02
388.917	4291.92
389.138	4321.59
389.359	4348.93
389.581	4378.02
389.802	4411.99
390.023	4439.72
390.244	4470.01
390.465	4500.72
390.687	4530.55
390.908	4558.66
391.129	4588.62
391.35	4613.24
391.571	4642.5
391.792	4675.68
392.013	4706.08
392.234	4734.72
392.455	4766.44
392.677	4799.68
392.898	4832.82
393.119	4865.72
393.34	4901.01
393.561	4934.41
393.782	4968.46
394.003	5000.02
394.223	5032.17
394.444	5067.13
394.665	5098.33
394.886	5132.35
395.107	5161.1
395.328	5195.75
395.549	5228.59
395.77	5261.3
395.99	5293.93
396.211	5325.88
396.432	5360.42
396.653	5390.93
396.874	5426.9
397.094	5461.93
397.315	5492.77
397.536	5527.13
397.757	5556.37
397.977	5587.97
398.198	5620.73
398.419	5652.08
398.639	5687.39
398.86	5717.19
399.081	5755.19
399.301	5785.92
399.522	5819.15
399.742	5854.99
399.963	5889.7
400.184	5928.1
400.404	5963.26
400.625	5997.93
400.845	6032.5
401.066	6062.22
401.286	6097.17
401.507	6129.81
401.727	6161.46
401.948	6193.66
402.168	6226.39
402.388	6262.72
402.609	6296.62
402.829	6329.64
403.05	6362.48
403.27	6397.01
403.49	6434.33
403.711	6470.13
403.931	6499.1
404.151	6538.79
404.372	6575.41
404.592	6609.22
404.812	6637.68
405.032	6672.92
405.253	6706.39
405.473	6737.22
405.693	6770.3
405.913	6805.04
406.133	6840.3
406.353	6877.37
406.574	6909.22
406.794	6945.61
407.014	6981.1
407.234	7020.9
407.454	7053.21
407.674	7092.13
407.894	7133.73
408.114	7172.02
408.334	7208.77
408.554	7250.39
408.774	7289.92
408.994	7328.7
409.214	7363.66
409.434	7404.19
409.654	7440.9
409.874	7481.46
410.094	7514.28
410.314	7550.77
410.534	7587.73
410.754	7630.44
410.974	7666.92
411.193	7703.21
411.413	7737.46
411.633	7777.59
411.853	7816.22
412.073	7855.08
412.292	7887.44
412.512	7924.84
412.732	7961.39
412.952	7998.93
413.171	8030.12
413.391	8065.3
413.611	8107.57
413.831	8152.1
414.05	8190.42
414.27	8229.28
414.489	8272.37
414.709	8319.64
414.929	8364.64
415.148	8414.92
415.368	8460.75
415.587	8505.41
415.807	8549.28
416.026	8590.97
416.246	8632.12
416.465	8678.97
416.685	8720.88
416.904	8762.53
417.124	8806.5
417.343	8847.06
417.563	8887.59
417.782	8931.15
418.002	8976.93
418.221	9021.46
418.44	9065.48
418.66	9111.26
418.879	9152.9
419.098	9199.32
419.318	9239.72
419.537	9282.79
419.756	9333.86
419.976	9375.37
420.195	9417.21
420.414	9460.82
420.633	9504.57
420.853	9543.88
421.072	9585.28
421.291	9634.72
421.51	9677.9
421.729	9725.02
421.948	9767.01
422.168	9805.84
422.387	9849.04
422.606	9894.66
422.825	9934.46
423.044	9980.62
423.263	10028.79
423.482	10074.48
423.701	10116.42
423.92	10157.24
424.139	10204.21
424.358	10252.08
424.577	10304.13
424.796	10348.22
425.015	10397.79
425.234	10453.06
425.453	10494.55
425.672	10539.46
425.891	10587.59
426.11	10630.04
426.328	10678.79
426.547	10726.17
426.766	10768.88
426.985	10812.61
427.204	10864.17
427.422	10905.13
427.641	10947.08
427.86	10997.26
428.079	11050.93
428.297	11096.75
428.516	11148.77
428.735	11195.1
428.954	11241.28
429.172	11293.32
429.391	11345.12
429.61	11385.77
429.828	11437.01
430.047	11485.73
430.265	11532.62
430.484	11573.12
430.703	11620.84
430.921	11664.33
431.14	11711.12
431.358	11757.86
431.577	11800.66
431.795	11841.17
432.014	11897.86
432.232	11941.35
432.451	11992.62
432.669	12043.9
432.887	12086.59
433.106	12136.21
433.324	12182.15
433.543	12236.9
433.761	12285.26
433.979	12335.06
434.198	12383.42
434.416	12425.68
434.634	12476.86
434.853	12520.33
435.071	12563.79
435.289	12622.97
435.507	12669.12
435.726	12717.88
435.944	12762.01
436.162	12808.59
436.38	12853.48
436.598	12897.37
436.817	12940.7
437.035	12982.82
437.253	13029.62
437.471	13080.79
437.689	13125.86
437.907	13173.62
438.125	13223.75
438.343	13271.32
438.561	13319.75
438.78	13369.59
438.998	13422.13
439.216	13473.17
439.434	13525.19
439.652	13569.3
439.869	13613.24
440.087	13658.62
440.305	13706.62
440.523	13748.19
440.741	13797.79
440.959	13840.9
441.177	13892.81
441.395	13939.53
441.613	13983.22
441.831	14029.04
442.048	14079.81
442.266	14124.24
442.484	14168.35
442.702	14215.86
442.919	14270.15
443.137	14321.08
443.355	14376.99
443.573	14419.5
443.79	14469.9
444.008	14516.73
444.226	14562.12
444.443	14611.53
444.661	14658.93
444.879	14712.28
445.096	14760.21
445.314	14808.5
445.532	14853.22
445.749	14898.82
445.967	14948.06
446.184	14995.08
446.402	15048.42
446.619	15098.39
446.837	15142.61
447.054	15195.64
447.272	15244.77
447.489	15290.28
447.707	15335.82
447.924	15379.35
448.141	15418.19
448.359	15464.64
448.576	15512.59
448.794	15562.01
449.011	15609.37
449.228	15663.06
449.446	15715.08
449.663	15757.64
449.88	15810.84
450.098	15859.46
450.315	15903.19
450.532	15956.9
450.749	16005.37
450.967	16053.62
451.184	16105.1
451.401	16151.19
451.618	16193.95
451.835	16232.75
452.052	16286.61
452.27	16325.04
452.487	16368.21
452.704	16421.37
452.921	16470.97
453.138	16519.57
453.355	16567.86
453.572	16612.3
453.789	16660.24
454.006	16710.28
454.223	16759.52
454.44	16801.48
454.657	16854.44
454.874	16907.44
455.091	16952.13
455.308	16999.97
455.525	17049.12
455.742	17093.39
455.959	17141.1
456.176	17195.28
456.393	17244.24
456.609	17291.57
456.826	17336.93
457.043	17384.08
457.26	17429.5
457.477	17478.55
457.693	17521.88
457.91	17564.06
458.127	17610.15
458.344	17652.99
458.56	17689.97
458.777	17728.75
458.994	17775.35
459.21	17816.64
459.427	17844.53
459.644	17876.06
459.86	17918.1
460.077	17951.95
460.294	17987.82
460.51	18018.3
460.727	18055.39
460.943	18090.9
461.16	18122.99
461.376	18150.02
461.593	18192.97
461.809	18239.59
462.026	18287.01
462.242	18328.93
462.459	18367.33
462.675	18406.66
462.892	18448.15
463.108	18480.77
463.324	18525.57
463.541	18573.04
463.757	18618.44
463.974	18654.7
464.19	18695.88
464.406	18736.26
464.623	18779.12
464.839	18831.26
465.055	18881.13
465.271	18931.64
465.488	18977.59
465.704	19032.39
465.92	19079.21
466.136	19129.13
466.353	19182.68
466.569	19231.77
466.785	19285.37
467.001	19327.99
467.217	19380.64
467.433	19431.92
467.649	19486.99
467.865	19555.79
468.082	19604.97
468.298	19665.7
468.514	19725.46
468.73	19782.84
468.946	19849.13
469.162	19912.22
469.378	19980.35
469.594	20040.59
469.81	20110.19
470.026	20179.35
470.242	20238.81
470.457	20306.39
470.673	20366.82
470.889	20430.42
471.105	20503.86
471.321	20570.24
471.537	20638.79
471.753	20703.55
471.968	20774.15
472.184	20842.5
472.4	20911.24
472.616	20988.66
472.832	21065.08
473.047	21137.48
473.263	21221.37
473.479	21293.37
473.694	21368.72
473.91	21437.37
474.126	21520.04
474.341	21600.84
474.557	21674.15
474.773	21737.26
474.988	21794.57
475.204	21858.75
475.42	21939.46
475.635	22007.88
475.851	22077.39
476.066	22142.39
476.282	22214.72
476.497	22281.99
476.713	22353.44
476.928	22421.81
477.144	22494.35
477.359	22571.64
477.575	22643.04
477.79	22695.62
478.005	22756.19
478.221	22819.12
478.436	22880.24
478.651	22938.61
478.867	22991.26
479.082	23032.48
479.297	23090.24
479.513	23151.57
479.728	23198.13
479.943	23246.13
480.159	23301.1
480.374	23355.77
480.589	23407.13
480.804	23461.37
481.019	23514.62
481.235	23571.93
481.45	23623.97
481.665	23670.28
481.88	23711.97
482.095	23764.19
482.31	23814.9
482.525	23867.81
482.741	23912.37
482.956	23957.97
483.171	24005.72
483.386	24056.13
483.601	24101.42
483.816	24148.13
484.031	24192.95
484.246	24238.21
484.461	24288.97
484.676	24336.77
484.891	24382.28
485.105	24420.13
485.32	24459.95
485.535	24504.92
485.75	24541.28
485.965	24584.81
486.18	24629.22
486.395	24669.32
486.609	24720.99
486.824	24749.73
487.039	24786.44
487.254	24822.81
487.469	24872.37
487.683	24919.42
487.898	24957.81
488.113	24995.35
488.327	25025.39
488.542	25064.17
488.757	25107.41
488.972	25135.41
489.186	25175.7
489.401	25209.73
489.615	25244.77
489.83	25281.93
490.045	25312.77
490.259	25347.44
490.474	25378.04
490.688	25410.88
490.903	25443.62
491.117	25474.41
491.332	25503.44
491.546	25533.52
491.761	25565.3
491.975	25599.44
492.19	25620.66
492.404	25651.39
492.618	25674.86
492.833	25703.81
493.047	25739.46
493.262	25772.15
493.476	25804.41
493.69	25839.79
493.905	25870.08
494.119	25904.55
494.333	25932.61
494.547	25961.53
494.762	25989.79
494.976	26027.44
495.19	26066.02
495.404	26092.44
495.619	26114.72
495.833	26138.93
496.047	26159.75
496.261	26178.57
496.475	26186.28
496.689	26195.28
496.903	26209.17
497.117	26207.97
497.332	26201.17
497.546	26190.24
497.76	26177.93
497.974	26169.61
498.188	26149.81
498.402	26137.04
498.616	26133.01
498.83	26125.22
499.044	26121.5
499.258	26121.5
499.472	26125.3
499.685	26128.5
499.899	26131.7
500.113	26145.42
500.327	26160.86
500.541	26179.3
500.755	26200.24
500.969	26219.1
501.183	26238.7
501.396	26259.7
501.61	26271.59
501.824	26298.68
502.038	26324.33
502.251	26348.22
502.465	26372.08
502.679	26380.93
502.892	26394.79
503.106	26419.37
503.32	26435.01
503.533	26456.22
503.747	26478.17
503.961	26502.97
504.174	26525.39
504.388	26548.81
504.602	26571.92
504.815	26602.35
505.029	26649.9
505.242	26695.37
505.456	26725.5
505.669	26777.21
505.883	26822.73
506.096	26875.81
506.31	26935.32
506.523	26986.12
506.736	27041.55
506.95	27098.13
507.163	27146.59
507.377	27199.32
507.59	27254.93
507.803	27323.62
508.017	27380.26
508.23	27449.33
508.443	27505.77
508.657	27560.32
508.87	27624.88
509.083	27681.17
509.296	27754.33
509.51	27836.22
509.723	27912.72
509.936	27988.5
510.149	28059.97
510.363	28143.39
510.576	28222.48
510.789	28319.12
511.002	28416.61
511.215	28510.64
511.428	28618.06
511.641	28718.62
511.854	28812.64
512.067	28913.3
512.28	29023.5
512.493	29129.61
512.707	29235.64
512.92	29339.82
513.132	29431.24
513.345	29531.64
513.558	29629.35
513.771	29734.55
513.984	29840.75
514.197	29952.04
514.41	30063.21
514.623	30167.26
514.836	30273.22
515.049	30376.79
515.262	30484.35
515.474	30597.17
515.687	30701.12
515.9	30807.62
516.113	30923.13
516.325	31016.48
516.538	31110.92
516.751	31194.84
516.964	31277.97
517.176	31363.39
517.389	31443.81
517.602	31531.24
517.814	31613.41
518.027	31686.9
518.24	31758.68
518.452	31816.81
518.665	31899.72
518.877	31968.72
519.09	32044.95
519.303	32120.28
519.515	32187.59
519.728	32257.73
519.94	32319.55
520.153	32382.79
520.365	32453.02
520.578	32533.7
520.79	32604.62
521.002	32662.02
521.215	32725.77
521.427	32778.21
521.64	32828.01
521.852	32880.52
522.064	32935.3
522.277	32979.5
522.489	33030.53
522.701	33084.9
522.914	33128.42
523.126	33167.46
523.338	33209.86
523.551	33261.08
523.763	33310.3
523.975	33368.46
524.187	33425.39
524.399	33471.52
524.612	33528.53
524.824	33574.39
525.036	33615.26
525.248	33658.81
525.46	33704.3
525.672	33756.42
525.884	33793.48
526.096	33831.75
526.308	33862.41
526.521	33890.08
526.733	33916.08
526.945	33947.92
527.157	33978.44
527.369	34003.24
527.581	34023.59
527.793	34055.42
528.004	34072.41
528.216	34092.53
528.428	34125.79
528.64	34152.62
528.852	34179.81
529.064	34214.33
529.276	34235.9
529.488	34257.86
529.699	34283.01
529.911	34316.01
530.123	34343.59
530.335	34372.35
530.547	34407.01
530.758	34435.93
530.97	34461.28
531.182	34491.13
531.393	34520.93
531.605	34546.21
531.817	34581.44
532.029	34616.53
532.24	34643.68
532.452	34670.37
532.663	34697.41
532.875	34714.82
533.087	34728.57
533.298	34757.55
533.51	34787.86
533.721	34806.13
533.933	34835.41
534.144	34854.68
534.356	34880.06
534.567	34898.79
534.779	34913.21
534.99	34923.52
535.202	34938.02
535.413	34963.79
535.624	34979.37
535.836	34989.22
536.047	35012.35
536.259	35021.99
536.47	35029.99
536.681	35034.08
536.893	35048.41
537.104	35056.35
537.315	35079.62
537.526	35102.32
537.738	35107.95
537.949	35123.79
538.16	35149.32
538.371	35157.75
538.582	35180.12
538.794	35194.72
539.005	35222.17
539.216	35238.66
539.427	35259.64
539.638	35276.41
539.849	35288.13
540.06	35309.73
540.272	35314.24
540.483	35317.81
540.694	35331.82
540.905	35341.66
541.116	35356.82
541.327	35362.77
541.538	35374.39
541.749	35384.3
541.96	35387.17
542.17	35393.68
542.381	35402.04
542.592	35420.99
542.803	35432.72
543.014	35442.68
543.225	35442.97
543.436	35455.28
543.647	35459.21
543.857	35474.02
544.068	35480.72
544.279	35503.02
544.49	35519.19
544.701	35533.53
544.911	35536.79
545.122	35537.39
545.333	35547.13
545.543	35562.13
545.754	35558.88
545.965	35568.52
546.175	35565.72
546.386	35573.48
546.597	35571.59
546.807	35569.41
547.018	35575.35
547.229	35583.79
547.439	35591.21
547.65	35586.92
547.86	35597.22
548.071	35615.81
548.281	35608.55
548.492	35614.92
548.702	35618.68
548.913	35621.22
549.123	35631.28
549.333	35636.19
549.544	35640.72
549.754	35647.41
549.965	35661.21
550.175	35660.95
550.385	35671.57
550.596	35694.64
550.806	35701.93
551.016	35717.57
551.227	35733.44
551.437	35741.52
551.647	35743.33
551.857	35755.17
552.068	35768.02
552.278	35783.17
552.488	35800.13
552.698	35805.86
552.908	35806.26
553.119	35821.12
553.329	35826.02
553.539	35821.7
553.749	35821.39
553.959	35817.75
554.169	35802.26
554.379	35788.9
554.589	35782.84
554.799	35769.02
555.009	35760.37
555.219	35754.75
555.429	35739.24
555.639	35724.44
555.849	35724.81
556.059	35722.1
556.269	35728.39
556.479	35739.13
556.689	35745.06
556.899	35749.24
557.109	35756.95
557.319	35761.39
557.528	35770.24
557.738	35781.19
557.948	35781.3
558.158	35776.77
558.368	35767.84
558.577	35749.93
558.787	35740.35
558.997	35733.68
559.207	35720.77
559.416	35707.15
559.626	35693.42
559.836	35677.28
560.045	35664.02
560.255	35660.57
560.465	35663.81
560.674	35662.26
560.884	35666.79
561.093	35656.02
561.303	35646.12
561.512	35633.48
561.722	35623.13
561.932	35614.04
562.141	35608.53
562.351	35593.88
562.56	35587.17
562.769	35570.68
562.979	35560.15
563.188	35548.41
563.398	35548.41
563.607	35539.46
563.817	35540.75
564.026	35543.02
564.235	35538.7
564.445	35525.22
564.654	35522.92
564.863	35504.37
565.073	35494.08
565.282	35488.73
565.491	35474.84
565.7	35455.9
565.91	35438.99
566.119	35415.82
566.328	35391.82
566.537	35360.12
566.746	35350.48
566.956	35330.72
567.165	35322.52
567.374	35310.06
567.583	35302.02
567.792	35294.73
568.001	35283.92
568.21	35266.1
568.419	35247.97
568.628	35223.04
568.837	35204.08
569.046	35170.06
569.255	35133.5
569.464	35104.55
569.673	35077.39
569.882	35042.66
570.091	35013.12
570.3	34988.19
570.509	34974.88
570.718	34950.55
570.927	34942.59
571.135	34939.81
571.344	34932.59
571.553	34938.88
571.762	34929.77
571.971	34910.19
572.18	34897.35
572.388	34874.84
572.597	34858.35
572.806	34842.44
573.014	34817.08
573.223	34794.44
573.432	34769.19
573.641	34745.52
573.849	34712.19
574.058	34696.5
574.266	34678.19
574.475	34655.15
574.684	34644.39
574.892	34630.22
575.101	34605.82
575.309	34600.06
575.518	34574.66
575.726	34552.15
575.935	34525.01
576.143	34509.37
576.352	34488.86
576.56	34468.46
576.769	34439.64
576.977	34424.59
577.186	34393.99
577.394	34374.08
577.602	34351.12
577.811	34334.3
578.019	34315.5
578.228	34302.17
578.436	34275.53
578.644	34252.66
578.852	34224.92
579.061	34204.53
579.269	34168.93
579.477	34144.33
579.685	34119.01
579.894	34092.15
580.102	34059.12
580.31	34035.22
580.518	34007.21
580.726	33987.66
580.935	33960.46
581.143	33941.88
581.351	33927.86
581.559	33905.17
581.767	33884.84
581.975	33859.55
582.183	33834.7
582.391	33826.08
582.599	33805.52
582.807	33784.19
583.015	33764.35
583.223	33743.28
583.431	33719.57
583.639	33695.72
583.847	33680.44
584.055	33653.13
584.263	33628.9
584.471	33605.97
584.678	33581.02
584.886	33553.32
585.094	33535.84
585.302	33510.81
585.51	33483.17
585.718	33456.3
585.925	33426.26
586.133	33393.17
586.341	33372.19
586.549	33350.73
586.756	33329.46
586.964	33301.01
587.172	33272.28
587.379	33238.73
587.587	33207.06
587.795	33170.7
588.002	33152.72
588.21	33131.3
588.417	33096.52
588.625	33061.72
588.833	33027.61
589.04	32994.88
589.248	32970.19
589.455	32950.1
589.663	32924.61
589.87	32899.13
590.078	32877.46
590.285	32843.95
590.492	32813.92
590.7	32795.79
590.907	32766.42
591.115	32746.93
591.322	32720.95
591.529	32685.22
591.737	32654.17
591.944	32631.53
592.151	32596.12
592.359	32571.61
592.566	32541.95
592.773	32502.35
592.981	32465.41
593.188	32435.15
593.395	32401.59
593.602	32374.08
593.809	32342.64
594.017	32308.35
594.224	32277.48
594.431	32252.84
594.638	32215.15
594.845	32179.44
595.052	32160.93
595.259	32147.21
595.466	32132.28
595.673	32111.37
595.88	32094.75
596.088	32083.75
596.295	32057.9
596.502	32019.28
596.709	31990.21
596.915	31964.15
597.122	31944.35
597.329	31915.66
597.536	31881.48
597.743	31854.35
597.95	31816.93
598.157	31772.28
598.364	31719.01
598.571	31670.53
598.777	31625.21
598.984	31569.68
599.191	31514.79
599.398	31461.99
599.605	31403.5
599.811	31346.73
600.018	31285.21
600.225	31234.32
600.431	31184.24
600.638	31139.97
600.845	31111.53
601.052	31086.64
601.258	31052.5
601.465	31014.5
601.671	30951.08
601.878	30886.3
602.085	30800.1
602.291	30698.66
602.498	30573.62
602.704	30436.24
602.911	30273.86
603.117	30088.12
603.324	29879.12
603.53	29671.72
603.737	29443.17
603.943	29214.57
604.15	28972.06
604.356	28725.7
604.562	28465.52
604.769	28216.97
604.975	27953.32
605.181	27695.12
605.388	27442.33
605.594	27183.3
605.8	26913.5
606.007	26644.24
606.213	26371.99
606.419	26103.17
606.625	25834.84
606.832	25575.81
607.038	25303.35
607.244	25037.64
607.45	24774.46
607.656	24492.77
607.863	24225.02
608.069	23958.21
608.275	23700.86
608.481	23438.9
608.687	23170.99
608.893	22899.88
609.099	22629.97
609.305	22365.99
609.511	22097.39
609.717	21823.32
609.923	21546.7
610.129	21260.99
610.335	20968.86
610.541	20672.1
610.747	20375.33
610.953	20083.24
611.159	19787.75
611.365	19486.22
611.571	19180.57
611.776	18872.52
611.982	18556.3
612.188	18251.02
612.394	17942.53
612.6	17632.24
612.806	17325.39
613.011	17013.92
613.217	16701.84
613.423	16400.81
613.628	16094.44
613.834	15793.57
614.04	15496.97
614.246	15208.52
614.451	14925.64
614.657	14652.19
614.862	14387.66
615.068	14115.3
615.274	13856.88
615.479	13608.46
615.685	13352.33
615.89	13112.7
616.096	12868.02
616.301	12621.12
616.507	12375.01
616.712	12130.37
616.918	11879.13
617.123	11626.19
617.329	11375.32
617.534	11116.99
617.74	10845.52
617.945	10578.99
618.15	10296.61
618.356	9862.02
618.561	9072.39
618.766	8118.53
618.972	7127.48
619.177	6164.24
619.382	5224.62
619.588	4310.42
619.793	3766.21
619.998	3132.18
620.203	2371.78
620.408	1448.96
620.614	542.1
