Data from test1_MAYP1115451__66__10-17-31-496.txt Node

Date: Wed Jun 12 10:17:31 MDT 2024
User: Modes Lab
Spectrometer: MAYP111545
Trigger mode: 0
Integration Time (sec): 8.000000E-3
Scans to average: 5
Electric dark correction enabled: true
Nonlinearity correction enabled: false
Boxcar width: 5
XAxis mode: Wavelengths
Number of Pixels in Spectrum: 2068
>>>>>Begin Spectral Data<<<<<
165.214	162.67
165.449	162.31
165.683	172.37
165.918	181.1
166.152	187.71
166.387	192.58
166.621	124.08
166.856	163.22
167.09	182.46
167.325	206.11
167.559	222.08
167.794	236.29
168.028	243.95
168.263	245.13
168.497	244.66
168.732	245.24
168.966	246.48
169.2	248.18
169.435	248.75
169.669	249.29
169.903	250.31
170.138	251.91
170.372	252.8
170.606	254.42
170.841	255.51
171.075	257.46
171.309	258.73
171.544	260.08
171.778	261.84
172.012	264.37
172.246	266.28
172.48	268.66
172.715	270.69
172.949	273.8
173.183	275.71
173.417	276.93
173.651	278.66
173.885	279.57
174.119	280.98
174.354	281.97
174.588	282.17
174.822	283.15
175.056	283.09
175.29	283.17
175.524	282.13
175.758	282.58
175.992	283.17
176.226	282.46
176.46	282.88
176.694	283.18
176.928	283.28
177.162	283.73
177.396	283.44
177.63	284.68
177.864	287.09
178.097	288.28
178.331	288.13
178.565	287.91
178.799	289.69
179.033	290.69
179.267	291.09
179.5	291.42
179.734	292.15
179.968	293.75
180.202	293.73
180.436	294.37
180.669	295.4
180.903	296.98
181.137	299.02
181.371	299.62
181.604	300.71
181.838	302.09
182.072	303.38
182.305	304.57
182.539	304.91
182.772	306.42
183.006	305.69
183.24	306.86
183.473	309.84
183.707	311.48
183.94	312.31
184.174	312.98
184.408	313.49
184.641	314.98
184.875	315.95
185.108	318.28
185.342	319.37
185.575	321.86
185.808	323.49
186.042	323.38
186.275	324.04
186.509	325.31
186.742	327.49
186.976	329.62
187.209	331.09
187.442	332.46
187.676	334.24
187.909	334.77
188.142	335.71
188.376	337.11
188.609	338.37
188.842	339.6
189.076	341.06
189.309	342.6
189.542	343.77
189.775	345.75
190.009	347
190.242	347.44
190.475	349.89
190.708	351.73
190.941	353.24
191.174	354.58
191.408	355.8
191.641	357.73
191.874	358.4
192.107	360.49
192.34	361.51
192.573	364.6
192.806	366.26
193.039	367.6
193.272	368.82
193.505	370.84
193.738	372.42
193.971	375.04
194.204	377.64
194.437	380.49
194.67	381.35
194.903	382.08
195.136	383.33
195.369	385.75
195.602	389.49
195.835	391.48
196.068	393.97
196.301	395.58
196.533	396.57
196.766	397.49
196.999	399.15
197.232	402.22
197.465	404.91
197.698	406.42
197.93	408.8
198.163	409.08
198.396	411.53
198.629	412.75
198.861	415.33
199.094	417.38
199.327	419.13
199.559	421.22
199.792	422.84
200.025	425.26
200.257	427.51
200.49	429.51
200.723	431.58
200.955	433.84
201.188	435.73
201.42	438.4
201.653	442.28
201.886	445.62
202.118	446.8
202.351	448.82
202.583	451.97
202.816	454.42
203.048	456.8
203.281	459.6
203.513	461.48
203.745	464.44
203.978	465.78
204.21	466.11
204.443	467.53
204.675	470.82
204.907	473.78
205.14	475.66
205.372	477.86
205.605	480.75
205.837	483.28
206.069	485.08
206.302	485.09
206.534	487.28
206.766	490.15
206.998	493.18
207.231	495.75
207.463	497.49
207.695	500.42
207.927	502.53
208.159	504
208.392	505.24
208.624	508.2
208.856	512.02
209.088	514.22
209.32	516.26
209.552	517.8
209.784	519.22
210.017	521.08
210.249	521.98
210.481	524.78
210.713	527.15
210.945	529.95
211.177	532.91
211.409	534.78
211.641	536.93
211.873	538.91
212.105	540.49
212.337	542.95
212.569	544.68
212.801	546.53
213.033	547.53
213.264	547.86
213.496	549.4
213.728	550.2
213.96	552.57
214.192	553.13
214.424	554.77
214.656	557.17
214.887	558.69
215.119	560.98
215.351	562.37
215.583	564.84
215.815	567.15
216.046	568.57
216.278	569.24
216.51	570.33
216.741	572.33
216.973	573.62
217.205	574.02
217.436	575.24
217.668	577.98
217.9	579.88
218.131	580.75
218.363	583.22
218.595	585.28
218.826	587.66
219.058	589.64
219.289	591.4
219.521	593.17
219.752	594.49
219.984	595.48
220.215	594.49
220.447	595.84
220.678	595.93
220.91	595.35
221.141	596.13
221.373	596.82
221.604	597.64
221.836	598.91
222.067	600.24
222.298	603.18
222.53	604.26
222.761	606.31
222.993	606.18
223.224	609.31
223.455	611.02
223.686	610.75
223.918	612.8
224.149	613.6
224.38	615
224.612	613.84
224.843	613.31
225.074	615.2
225.305	616.35
225.536	617.35
225.768	616.62
225.999	617.13
226.23	618.24
226.461	618.82
226.692	618.75
226.923	619.09
227.155	622.42
227.386	622.4
227.617	622.37
227.848	622.31
228.079	624.26
228.31	624.86
228.541	624.26
228.772	625.53
229.003	624.11
229.234	624.37
229.465	624.66
229.696	622.93
229.927	623.78
230.158	624.98
230.389	623.82
230.62	622.89
230.85	623.15
231.081	623.97
231.312	622.88
231.543	622.55
231.774	622.82
232.005	622.8
232.236	624.02
232.466	623.86
232.697	622.49
232.928	623.46
233.159	624.02
233.389	622.86
233.62	622.57
233.851	622.71
234.082	622.6
234.312	622.17
234.543	620.26
234.774	619.71
235.004	619.48
235.235	619.57
235.466	619.13
235.696	618.91
235.927	619.31
236.157	619.15
236.388	619.57
236.618	620.08
236.849	620.4
237.08	621.89
237.31	621.57
237.541	621.06
237.771	619.77
238.002	618.91
238.232	617.89
238.463	618.09
238.693	619.95
238.923	619.08
239.154	619.46
239.384	618.69
239.615	617.29
239.845	617.26
240.075	616.51
240.306	616.71
240.536	617.4
240.766	616.75
240.997	615.49
241.227	613.2
241.457	613.37
241.687	611.97
241.918	613.02
242.148	613.09
242.378	611.95
242.608	611.8
242.839	611.06
243.069	610
243.299	609.15
243.529	610.28
243.759	609.86
243.989	608.88
244.22	608.57
244.45	606.97
244.68	607.04
244.91	607.15
245.14	606.35
245.37	605.64
245.6	605.35
245.83	604.22
246.06	603.11
246.29	603.18
246.52	603.22
246.75	603.4
246.98	601.71
247.21	602
247.44	601.48
247.67	601.08
247.9	601.17
248.13	600.78
248.359	601.49
248.589	600.51
248.819	599.53
249.049	599.42
249.279	598.09
249.509	597.18
249.738	595.77
249.968	594.53
250.198	593.78
250.428	592.78
250.657	592.49
250.887	592.44
251.117	591.66
251.347	590.6
251.576	588.91
251.806	588.68
252.036	588.38
252.265	587.93
252.495	587.82
252.725	588.66
252.954	589.42
253.184	587
253.413	586.37
253.643	586.02
253.873	585.26
254.102	585.73
254.332	585.31
254.561	586.28
254.791	585.11
255.02	584.82
255.25	583.15
255.479	580.57
255.708	581.6
255.938	579.31
256.167	578.78
256.397	578.53
256.626	577.15
256.856	575.93
257.085	574.24
257.314	573.88
257.544	573.89
257.773	574.4
258.002	574.66
258.232	572.77
258.461	572.86
258.69	570.66
258.919	570.88
259.149	570.13
259.378	569.58
259.607	569.4
259.836	569.22
260.065	567.91
260.295	566.89
260.524	566.91
260.753	567.4
260.982	566.8
261.211	567.66
261.44	566.29
261.669	565.88
261.899	565.24
262.128	563.64
262.357	561.11
262.586	561.11
262.815	560
263.044	558.93
263.273	561.31
263.502	560.86
263.731	559.55
263.96	558.75
264.189	557.28
264.418	556.17
264.646	557.53
264.875	557.88
265.104	555.68
265.333	555.71
265.562	555.31
265.791	550.86
266.02	549.77
266.249	548.46
266.477	546.82
266.706	547.13
266.935	545.98
267.164	543.66
267.393	543.18
267.621	542.75
267.85	540.77
268.079	539.66
268.307	539.48
268.536	539.04
268.765	539.46
268.993	541.57
269.222	539.86
269.451	540.6
269.679	540
269.908	540.06
270.137	539.17
270.365	539.68
270.594	538.55
270.822	537.46
271.051	538.68
271.279	539.04
271.508	537.8
271.736	539.33
271.965	540.53
272.193	542.08
272.422	541.57
272.65	542.31
272.879	542.8
273.107	544.09
273.336	544.64
273.564	543.84
273.792	541.93
274.021	540.53
274.249	539.73
274.477	536.73
274.706	534.06
274.934	532.24
275.162	529.62
275.391	527.2
275.619	525.37
275.847	524.58
276.075	522.28
276.304	521.37
276.532	520.78
276.76	520.44
276.988	520.68
277.216	520.44
277.445	520.28
277.673	521.11
277.901	520.49
278.129	519.69
278.357	518.53
278.585	518.84
278.813	519.09
279.041	518.51
279.269	517.06
279.497	516.91
279.725	516.15
279.954	515.46
280.182	514.64
280.41	514.78
280.637	514.06
280.865	514.08
281.093	514.38
281.321	513.48
281.549	513.18
281.777	512.64
282.005	510.02
282.233	510.64
282.461	510.62
282.689	510.53
282.916	510.93
283.144	511.62
283.372	511.15
283.6	509.64
283.828	509.2
284.055	507.91
284.283	506.57
284.511	506.68
284.739	505.51
284.966	504.82
285.194	503.4
285.422	502.04
285.649	500.98
285.877	500.09
286.105	499.22
286.332	498.8
286.56	499.38
286.788	500.28
287.015	499.93
287.243	499
287.47	498.57
287.698	498.11
287.925	497.75
288.153	497.49
288.381	497.09
288.608	497.4
288.836	496.51
289.063	495.95
289.29	494.6
289.518	494.8
289.745	495.4
289.973	495.08
290.2	496.31
290.428	495.02
290.655	494.28
290.882	493.15
291.11	492.33
291.337	492.08
291.564	490.15
291.792	489.04
292.019	488.11
292.246	486.71
292.473	484.88
292.701	483.2
292.928	483.49
293.155	481.89
293.382	482.22
293.61	481.91
293.837	481.58
294.064	480.84
294.291	480.17
294.518	480.29
294.745	479.35
294.972	479.64
295.2	478.18
295.427	477.53
295.654	477.8
295.881	477.04
296.108	475.77
296.335	475
296.562	475.88
296.789	476.78
297.016	475.11
297.243	474.13
297.47	472.93
297.697	473.58
297.924	472.91
298.151	471.73
298.378	470.73
298.604	469.68
298.831	469.09
299.058	467.69
299.285	467.53
299.512	467.06
299.739	468.35
299.966	468.6
300.192	468.06
300.419	466.38
300.646	465.91
300.873	464.89
301.099	465.35
301.326	464.04
301.553	464.42
301.78	463.88
302.006	463.18
302.233	461.51
302.46	461.17
302.686	460.2
302.913	460.93
303.14	461.24
303.366	461.48
303.593	461.02
303.819	461.8
304.046	460.62
304.272	459.31
304.499	459.4
304.725	459.13
304.952	458.2
305.179	457.62
305.405	457.04
305.631	455.68
305.858	456.22
306.084	454.77
306.311	454.02
306.537	454.11
306.764	453.78
306.99	454.4
307.216	453.93
307.443	453.91
307.669	453.46
307.895	453.46
308.122	454.22
308.348	452.68
308.574	452.77
308.801	453.64
309.027	453.37
309.253	453.18
309.479	452.13
309.706	452.29
309.932	452.68
310.158	452.73
310.384	452.28
310.61	451.73
310.837	451.95
311.063	452.35
311.289	450.75
311.515	450.31
311.741	450.46
311.967	450.71
312.193	450.75
312.419	450.48
312.645	451.35
312.871	452.06
313.097	452.57
313.323	452.58
313.549	453.86
313.775	455.29
314.001	455.55
314.227	455.38
314.453	456.33
314.679	457.57
314.905	457.89
315.131	457.33
315.357	457.24
315.583	456.51
315.809	456.98
316.034	456.29
316.26	455.55
316.486	456.75
316.712	457.48
316.938	456.86
317.163	457
317.389	457.08
317.615	457.98
317.841	457.86
318.066	459.04
318.292	459.09
318.518	459.58
318.743	460.04
318.969	459.69
319.195	460.13
319.42	460.86
319.646	461.15
319.872	462.69
320.097	463.88
320.323	465.38
320.548	467.4
320.774	470.75
320.999	472.93
321.225	474.82
321.45	476.84
321.676	478.11
321.901	480.18
322.127	481.48
322.352	482.18
322.578	483.8
322.803	485.57
323.029	486.02
323.254	486.37
323.479	486.6
323.705	487.46
323.93	489.06
324.155	490.06
324.381	491.38
324.606	493.37
324.831	495
325.057	497.22
325.282	498.75
325.507	501.48
325.732	504.13
325.958	506.62
326.183	509.57
326.408	510.48
326.633	513.38
326.858	515.44
327.084	517.86
327.309	519.78
327.534	521.2
327.759	523.84
327.984	525.69
328.209	527.77
328.434	531.37
328.659	534.49
328.884	537.98
329.109	541.46
329.334	544.51
329.559	547.57
329.784	551.57
330.009	555.93
330.234	559.04
330.459	562.09
330.684	564.78
330.909	567.4
331.134	571.24
331.359	576.02
331.584	579.62
331.809	583.8
332.034	587.24
332.259	592.44
332.483	596.29
332.708	601.4
332.933	607.13
333.158	612.44
333.383	616.82
333.607	620.78
333.832	624.97
334.057	629.29
334.282	634.91
334.506	641.17
334.731	646.04
334.956	651.02
335.18	656.04
335.405	660.68
335.63	665.58
335.854	672.18
336.079	677.8
336.303	684.33
336.528	690.22
336.753	696.28
336.977	701.53
337.202	707.35
337.426	713.89
337.651	721.02
337.875	728.06
338.1	735.31
338.324	741.82
338.549	748.71
338.773	756.55
338.997	764.53
339.222	770
339.446	776.95
339.671	783.97
339.895	790.64
340.119	797.26
340.344	804.46
340.568	811.78
340.792	820.09
341.017	827.48
341.241	833.17
341.465	839.6
341.689	849
341.914	858.75
342.138	866.8
342.362	874.95
342.586	883.91
342.811	891.46
343.035	901.08
343.259	908.78
343.483	918.55
343.707	929.18
343.931	940.55
344.155	948.73
344.38	957.24
344.604	967.42
344.828	977.58
345.052	985.77
345.276	994.13
345.5	1002.46
345.724	1012.53
345.948	1022.08
346.172	1030.66
346.396	1039.18
346.62	1050.58
346.844	1060.13
347.068	1070.37
347.292	1080.8
347.515	1090.88
347.739	1104.35
347.963	1114.95
348.187	1125.02
348.411	1132.93
348.635	1143.13
348.859	1153.08
349.082	1162.58
349.306	1171.49
349.53	1179.77
349.754	1189.18
349.977	1199.09
350.201	1209.42
350.425	1219.97
350.649	1229.98
350.872	1243.13
351.096	1253.8
351.32	1264.62
351.543	1275.97
351.767	1290.75
351.99	1301.71
352.214	1312.82
352.438	1325.24
352.661	1335.49
352.885	1347.13
353.108	1359.08
353.332	1370.88
353.555	1382.84
353.779	1395.35
354.002	1406.51
354.226	1416.33
354.449	1429.68
354.673	1442.33
354.896	1454.06
355.12	1467.24
355.343	1481.51
355.566	1493.71
355.79	1504.84
356.013	1516.38
356.237	1526.15
356.46	1538.95
356.683	1549.88
356.907	1561.37
357.13	1572.97
357.353	1584.93
357.576	1596.15
357.8	1604.44
358.023	1618.53
358.246	1632.15
358.469	1645.13
358.693	1659.75
358.916	1671.4
359.139	1685.46
359.362	1698.93
359.585	1711.15
359.808	1724.91
360.031	1737.77
360.255	1753.62
360.478	1763.77
360.701	1778.08
360.924	1790.6
361.147	1804.04
361.37	1818.91
361.593	1831.26
361.816	1845.53
362.039	1860.98
362.262	1872.49
362.485	1885.11
362.708	1897.42
362.931	1914.13
363.154	1926.93
363.377	1940.09
363.599	1954.26
363.822	1968.4
364.045	1983.49
364.268	1995.2
364.491	2009.42
364.714	2025.35
364.936	2041.8
365.159	2054.6
365.382	2068.98
365.605	2081.89
365.828	2099.49
366.05	2113.02
366.273	2126.35
366.496	2140.18
366.718	2157.42
366.941	2172
367.164	2187.08
367.386	2202.15
367.609	2221.91
367.832	2235.15
368.054	2253.24
368.277	2265.71
368.5	2282.46
368.722	2299.11
368.945	2317
369.167	2332.02
369.39	2347.98
369.612	2361.77
369.835	2378.84
370.057	2393.18
370.28	2412.06
370.502	2427
370.725	2445.55
370.947	2461.88
371.169	2479.2
371.392	2497.33
371.614	2516.13
371.837	2531.24
372.059	2549.37
372.281	2564.62
372.504	2583.51
372.726	2598.91
372.948	2615.8
373.171	2634.06
373.393	2650
373.615	2666.93
373.837	2682.11
374.06	2700.11
374.282	2719.8
374.504	2738.08
374.726	2759.58
374.948	2774.48
375.17	2795.64
375.393	2814.06
375.615	2834.04
375.837	2855.08
376.059	2873.48
376.281	2891.46
376.503	2909
376.725	2928.26
376.947	2950.97
377.169	2966.35
377.391	2987.57
377.613	3005.66
377.835	3031.51
378.057	3051.82
378.279	3071.71
378.501	3094.73
378.723	3115.49
378.945	3134.91
379.167	3158.49
379.389	3180.26
379.611	3204.22
379.833	3227.6
380.054	3251.48
380.276	3271.31
380.498	3293.4
380.72	3320.33
380.942	3341.24
381.163	3368.93
381.385	3395.57
381.607	3416.73
381.829	3439.18
382.05	3462.31
382.272	3485.95
382.494	3510.46
382.716	3534.78
382.937	3557.66
383.159	3581.02
383.381	3606.71
383.602	3631.93
383.824	3657.86
384.045	3687.55
384.267	3713.82
384.488	3742.09
384.71	3771
384.932	3797.48
385.153	3825.35
385.375	3854.29
385.596	3881.89
385.818	3911.58
386.039	3938.44
386.261	3964.2
386.482	3989.75
386.703	4019.26
386.925	4046.37
387.146	4073.78
387.368	4100.31
387.589	4128.78
387.81	4158.53
388.032	4185.42
388.253	4212.22
388.474	4241.09
388.696	4272.44
388.917	4301.13
389.138	4327.8
389.359	4355.57
389.581	4380.6
389.802	4410.09
390.023	4437.33
390.244	4462.93
390.465	4493.66
390.687	4523.48
390.908	4549.57
391.129	4580.86
391.35	4610.22
391.571	4645.02
391.792	4677.24
392.013	4710.89
392.234	4743.18
392.455	4773.11
392.677	4808.51
392.898	4838.68
393.119	4870.2
393.34	4906.77
393.561	4935.68
393.782	4971.33
394.003	5001.06
394.223	5032.44
394.444	5063.18
394.665	5096.58
394.886	5133.18
395.107	5162.78
395.328	5193.37
395.549	5228.02
395.77	5258.84
395.99	5294.17
396.211	5324.6
396.432	5358.17
396.653	5394.31
396.874	5430.17
397.094	5463.4
397.315	5493.02
397.536	5528.11
397.757	5564.15
397.977	5592.46
398.198	5625.46
398.419	5655.68
398.639	5688.8
398.86	5722.89
399.081	5755.04
399.301	5785.89
399.522	5817.06
399.742	5854.62
399.963	5885.11
400.184	5917.95
400.404	5952.86
400.625	5988
400.845	6026.75
401.066	6060.46
401.286	6090.48
401.507	6124.24
401.727	6160.31
401.948	6198.33
402.168	6231.86
402.388	6270.98
402.609	6307.66
402.829	6349.35
403.05	6380.73
403.27	6412.88
403.49	6448.98
403.711	6488.84
403.931	6522.46
404.151	6558.35
404.372	6587.91
404.592	6620.91
404.812	6653.11
405.032	6684.78
405.253	6713.28
405.473	6745.64
405.693	6778.8
405.913	6812.24
406.133	6843.8
406.353	6878.95
406.574	6910.04
406.794	6946.98
407.014	6984.77
407.234	7021.08
407.454	7053.73
407.674	7090.35
407.894	7128.51
408.114	7165.78
408.334	7203.8
408.554	7242.33
408.774	7281.04
408.994	7322.48
409.214	7361.13
409.434	7396.42
409.654	7433.69
409.874	7478.62
410.094	7513.11
410.314	7552.24
410.534	7589.88
410.754	7624.37
410.974	7660.42
411.193	7695.15
411.413	7729.35
411.633	7768.13
411.853	7805.84
412.073	7841.69
412.292	7876.46
412.512	7918.02
412.732	7957.11
412.952	7993.33
413.171	8035.15
413.391	8076.38
413.611	8117.2
413.831	8159.08
414.05	8202.44
414.27	8242.33
414.489	8287.04
414.709	8330.89
414.929	8375.86
415.148	8420.33
415.368	8465.6
415.587	8509.4
415.807	8550.4
416.026	8597.22
416.246	8638.55
416.465	8678.42
416.685	8722.55
416.904	8765.8
417.124	8810.08
417.343	8852.26
417.563	8896
417.782	8942.88
418.002	8988.55
418.221	9032.09
418.44	9078.02
418.66	9126.46
418.879	9170.75
419.098	9213.69
419.318	9255.73
419.537	9298.62
419.756	9346.62
419.976	9392.71
420.195	9430.11
420.414	9474.06
420.633	9523.33
420.853	9559.97
421.072	9603.35
421.291	9643.51
421.51	9691.13
421.729	9732.68
421.948	9773.91
422.168	9812.89
422.387	9853.97
422.606	9900.66
422.825	9941.71
423.044	9981.44
423.263	10028.2
423.482	10069.46
423.701	10118.49
423.92	10160.57
424.139	10209.04
424.358	10254.48
424.577	10301.11
424.796	10348.58
425.015	10391.73
425.234	10442.37
425.453	10486.38
425.672	10536.37
425.891	10588.29
426.11	10634.11
426.328	10679.2
426.547	10723.2
426.766	10774.88
426.985	10822.22
427.204	10869.84
427.422	10922.33
427.641	10967.88
427.86	11018.97
428.079	11059.71
428.297	11101.09
428.516	11145.57
428.735	11198
428.954	11244.15
429.172	11292.08
429.391	11337.46
429.61	11383.24
429.828	11427.33
430.047	11472.55
430.265	11516.38
430.484	11566.08
430.703	11614.38
430.921	11659.42
431.14	11700
431.358	11746.75
431.577	11790.04
431.795	11835.93
432.014	11882.8
432.232	11933.08
432.451	11982.28
432.669	12033.93
432.887	12081.46
433.106	12128.33
433.324	12183.4
433.543	12236.37
433.761	12288.15
433.979	12333.86
434.198	12384.53
434.416	12435.69
434.634	12485.71
434.853	12534.73
435.071	12586.55
435.289	12635.82
435.507	12682.64
435.726	12721.75
435.944	12767.73
436.162	12813.28
436.38	12865.35
436.598	12911.58
436.817	12947.29
437.035	12990.15
437.253	13036.98
437.471	13072.91
437.689	13115.93
437.907	13167.13
438.125	13219.48
438.343	13267.89
438.561	13317.06
438.78	13364.08
438.998	13407.02
439.216	13464.4
439.434	13509.89
439.652	13558.6
439.869	13611.75
440.087	13661.97
440.305	13708.77
440.523	13756.78
440.741	13803.77
440.959	13851.8
441.177	13900.06
441.395	13952.49
441.613	13995.69
441.831	14045.08
442.048	14085.62
442.266	14129.44
442.484	14180.46
442.702	14227.64
442.919	14274.48
443.137	14321.17
443.355	14370.62
443.573	14420.73
443.79	14473.22
444.008	14526.95
444.226	14581.64
444.443	14631.62
444.661	14682.73
444.879	14732.11
445.096	14776.51
445.314	14829.08
445.532	14877.93
445.749	14922.77
445.967	14962.64
446.184	15005.68
446.402	15049.55
446.619	15088.49
446.837	15137.26
447.054	15181.37
447.272	15224.55
447.489	15276.29
447.707	15320.26
447.924	15372.89
448.141	15424.55
448.359	15474.8
448.576	15524.28
448.794	15571.33
449.011	15625.17
449.228	15671.28
449.446	15722.89
449.663	15771.51
449.88	15816.55
450.098	15860.62
450.315	15906.77
450.532	15949.04
450.749	16000.42
450.967	16044.42
451.184	16096.75
451.401	16142.28
451.618	16196.04
451.835	16243.84
452.052	16290.02
452.27	16341.29
452.487	16393.49
452.704	16438.78
452.921	16487.53
453.138	16533.53
453.355	16588.09
453.572	16629.53
453.789	16680.68
454.006	16718.71
454.223	16767.24
454.44	16815.84
454.657	16859.38
454.874	16900.13
455.091	16942.73
455.308	16988.89
455.525	17036.4
455.742	17080.93
455.959	17128.89
456.176	17169.37
456.393	17224.73
456.609	17274.86
456.826	17323.57
457.043	17372.89
457.26	17424.22
457.477	17472.35
457.693	17524.69
457.91	17566.97
458.127	17615.02
458.344	17659.89
458.56	17709.22
458.777	17747.33
458.994	17782.78
459.21	17812.66
459.427	17848.82
459.644	17888.31
459.86	17924.53
460.077	17962.13
460.294	17992.89
460.51	18024.97
460.727	18059.17
460.943	18085.49
461.16	18117.04
461.376	18150.82
461.593	18190.91
461.809	18231.97
462.026	18262.98
462.242	18307.95
462.459	18342.8
462.675	18390
462.892	18432.49
463.108	18474.68
463.324	18514.84
463.541	18567.77
463.757	18613.57
463.974	18665.04
464.19	18705.11
464.406	18754.15
464.623	18800.02
464.839	18848.11
465.055	18892.64
465.271	18936.31
465.488	18984.62
465.704	19036.62
465.92	19074.82
466.136	19119.18
466.353	19158.8
466.569	19206.66
466.785	19258.11
467.001	19301.37
467.217	19352.04
467.433	19408.22
467.649	19462.29
467.865	19521.4
468.082	19582.89
468.298	19649.33
468.514	19721.69
468.73	19799.29
468.946	19871.44
469.162	19944.29
469.378	20015.29
469.594	20083.53
469.81	20151.91
470.026	20219.04
470.242	20284.6
470.457	20345.02
470.673	20403.33
470.889	20461
471.105	20521.68
471.321	20584.22
471.537	20642.93
471.753	20710.62
471.968	20781.44
472.184	20850.09
472.4	20929.31
472.616	20998.35
472.832	21080.46
473.047	21159.13
473.263	21235.24
473.479	21304.4
473.694	21385.46
473.91	21465.58
474.126	21533.49
474.341	21600.53
474.557	21672.55
474.773	21728.84
474.988	21798
475.204	21865.08
475.42	21933.95
475.635	22000.11
475.851	22067.55
476.066	22136.88
476.282	22194.13
476.497	22261.35
476.713	22330
476.928	22399.89
477.144	22469.49
477.359	22541.66
477.575	22601.77
477.79	22662.95
478.005	22730.11
478.221	22800.58
478.436	22852.71
478.651	22912.69
478.867	22974.44
479.082	23031.06
479.297	23082.02
479.513	23139.89
479.728	23188.15
479.943	23243.53
480.159	23296.71
480.374	23342.11
480.589	23387.37
480.804	23443.73
481.019	23502.97
481.235	23553.6
481.45	23602.91
481.665	23655.33
481.88	23709.66
482.095	23757.09
482.31	23809.77
482.525	23871.09
482.741	23931.22
482.956	23976
483.171	24023.04
483.386	24067.26
483.601	24114.17
483.816	24158.4
484.031	24201.46
484.246	24242.06
484.461	24294.24
484.676	24336.46
484.891	24372.4
485.105	24406.51
485.32	24454.78
485.535	24500.71
485.75	24545.17
485.965	24587.13
486.18	24631.24
486.395	24681.15
486.609	24728
486.824	24768.13
487.039	24814.71
487.254	24853.38
487.469	24897.82
487.683	24938.78
487.898	24970.48
488.113	25010.58
488.327	25049.18
488.542	25095.8
488.757	25126.22
488.972	25157.8
489.186	25192.6
489.401	25225.93
489.615	25255.38
489.83	25288
490.045	25318.58
490.259	25355.18
490.474	25382.68
490.688	25414.51
490.903	25437.91
491.117	25468.51
491.332	25497.97
491.546	25531.78
491.761	25563.37
491.975	25611.42
492.19	25648.62
492.404	25680.66
492.618	25714.82
492.833	25751.71
493.047	25784.09
493.262	25814.31
493.476	25845.75
493.69	25883.48
493.905	25906.4
494.119	25930.15
494.333	25951.09
494.547	25975.71
494.762	26006.57
494.976	26037.69
495.19	26057.73
495.404	26088.88
495.619	26116.4
495.833	26135.62
496.047	26153.24
496.261	26169.51
496.475	26187.78
496.689	26189.95
496.903	26194.49
497.117	26189.15
497.332	26175.18
497.546	26175
497.76	26161.02
497.974	26149.46
498.188	26149.49
498.402	26147.46
498.616	26144.86
498.83	26136.2
499.044	26130.91
499.258	26127.08
499.472	26138.4
499.685	26137.53
499.899	26139.53
500.113	26148.62
500.327	26159.38
500.541	26166.28
500.755	26178.22
500.969	26194.57
501.183	26204.82
501.396	26227.86
501.61	26246.88
501.824	26261.68
502.038	26295.86
502.251	26323.91
502.465	26344.4
502.679	26370.51
502.892	26390.15
503.106	26402.06
503.32	26419.2
503.533	26444.26
503.747	26472.35
503.961	26500.69
504.174	26529.97
504.388	26555.55
504.602	26582.22
504.815	26616.46
505.029	26651.11
505.242	26692.55
505.456	26744.51
505.669	26787.91
505.883	26834.93
506.096	26881.33
506.31	26926.66
506.523	26968.02
506.736	27016.46
506.95	27063.48
507.163	27118.73
507.377	27175.11
507.59	27227.09
507.803	27280.24
508.017	27341.8
508.23	27401.62
508.443	27467.13
508.657	27537.75
508.87	27606.91
509.083	27672.93
509.296	27746.08
509.51	27823.42
509.723	27903.75
509.936	27983.93
510.149	28062.29
510.363	28144.89
510.576	28236.26
510.789	28326.75
511.002	28422.09
511.215	28521.35
511.428	28633.29
511.641	28737.55
511.854	28840.24
512.067	28936.55
512.28	29045.88
512.493	29151.91
512.707	29260.17
512.92	29367.48
513.132	29463.84
513.345	29555.13
513.558	29657.55
513.771	29756.08
513.984	29857.93
514.197	29959.77
514.41	30063.68
514.623	30160.11
514.836	30267.35
515.049	30369.53
515.262	30464.17
515.474	30568.8
515.687	30673.48
515.9	30769.78
516.113	30868.13
516.325	30966.68
516.538	31057.6
516.751	31146.22
516.964	31242.89
517.176	31327.53
517.389	31414.29
517.602	31502.51
517.814	31583.15
518.027	31672.11
518.24	31754.78
518.452	31826.28
518.665	31899
518.877	31979.62
519.09	32061.08
519.303	32129.22
519.515	32199.86
519.728	32259.49
519.94	32321.4
520.153	32394.75
520.365	32458.42
520.578	32528.82
520.79	32594.51
521.002	32660.89
521.215	32713.22
521.427	32765.93
521.64	32820.22
521.852	32870.11
522.064	32939.38
522.277	33002.78
522.489	33051.33
522.701	33107.68
522.914	33154.08
523.126	33198.46
523.338	33245.51
523.551	33305.57
523.763	33350.33
523.975	33405.84
524.187	33455.38
524.399	33487.64
524.612	33527.66
524.824	33569.11
525.036	33603.78
525.248	33638.6
525.46	33674
525.672	33721.48
525.884	33745.53
526.096	33782.73
526.308	33816.69
526.521	33848.69
526.733	33882.75
526.945	33909.28
527.157	33940.37
527.369	33971.66
527.581	34001.84
527.793	34034.4
528.004	34052.97
528.216	34088.98
528.428	34123.33
528.64	34153.86
528.852	34189.26
529.064	34222.95
529.276	34257.24
529.488	34281.8
529.699	34309.88
529.911	34335.91
530.123	34372.24
530.335	34399.78
530.547	34426.26
530.758	34451.29
530.97	34471.95
531.182	34500.91
531.393	34534.38
531.605	34567.51
531.817	34609.2
532.029	34642.66
532.24	34674.75
532.452	34693.2
532.663	34715.66
532.875	34733.06
533.087	34760.42
533.298	34779.24
533.51	34790.66
533.721	34808.88
533.933	34830.48
534.144	34838.28
534.356	34843.26
534.567	34865.71
534.779	34879.69
534.99	34887.48
535.202	34916.44
535.413	34925.84
535.624	34948.35
535.836	34970.08
536.047	34982.84
536.259	34982.64
536.47	34995.29
536.681	35013.11
536.893	35023.44
537.104	35050.89
537.315	35079.02
537.526	35095.35
537.738	35116.6
537.949	35130.55
538.16	35150.29
538.371	35173.69
538.582	35202.55
538.794	35227.64
539.005	35242.8
539.216	35259.97
539.427	35269.02
539.638	35290.04
539.849	35291.06
540.06	35305.93
540.272	35326.31
540.483	35323.93
540.694	35321.51
540.905	35333.02
541.116	35340.44
541.327	35362.13
541.538	35373.11
541.749	35384.31
541.96	35380.77
542.17	35400.93
542.381	35404.29
542.592	35411.71
542.803	35429.73
543.014	35446.84
543.225	35443.78
543.436	35447.48
543.647	35445.37
543.857	35453.88
544.068	35466.97
544.279	35488.48
544.49	35488.71
544.701	35496.64
544.911	35505.06
545.122	35510.68
545.333	35518.46
545.543	35534.95
545.754	35551.46
545.965	35565.08
546.175	35568.95
546.386	35574.77
546.597	35577.51
546.807	35587.77
547.018	35597.89
547.229	35598.13
547.439	35605.11
547.65	35603.6
547.86	35608.09
548.071	35599.46
548.281	35598
548.492	35599.86
548.702	35606.29
548.913	35616.18
549.123	35622.77
549.333	35628.69
549.544	35637.2
549.754	35648.86
549.965	35664.33
550.175	35668.29
550.385	35689.17
550.596	35706.53
550.806	35725.44
551.016	35726.84
551.227	35726.73
551.437	35732.09
551.647	35743.73
551.857	35753.51
552.068	35766.89
552.278	35773.58
552.488	35783.06
552.698	35794.73
552.908	35787.64
553.119	35781.88
553.329	35790.22
553.539	35787
553.749	35786.09
553.959	35784.08
554.169	35778.26
554.379	35768.28
554.589	35761.69
554.799	35759.26
555.009	35755.35
555.219	35762.38
555.429	35771.93
555.639	35759.48
555.849	35763.37
556.059	35757.95
556.269	35748.2
556.479	35750.77
556.689	35752.73
556.899	35747.26
557.109	35750.73
557.319	35746.64
557.528	35747.48
557.738	35738.29
557.948	35740.02
558.158	35734.71
558.368	35730.13
558.577	35719.77
558.787	35719.6
558.997	35707.49
559.207	35703.91
559.416	35685.88
559.626	35663.93
559.836	35649.42
560.045	35643.55
560.255	35642.28
560.465	35642.4
560.674	35641.35
560.884	35648.86
561.093	35628.44
561.303	35614.08
561.512	35611.95
561.722	35601.35
561.932	35604.33
562.141	35592.02
562.351	35576.38
562.56	35565.31
562.769	35552.04
562.979	35548.09
563.188	35545.86
563.398	35545.33
563.607	35554.11
563.817	35554.73
564.026	35557.89
564.235	35556.51
564.445	35561.29
564.654	35557.91
564.863	35546.51
565.073	35535.2
565.282	35520.71
565.491	35499.04
565.7	35479.44
565.91	35453.66
566.119	35429.08
566.328	35408.42
566.537	35384.49
566.746	35364.78
566.956	35362.29
567.165	35345.55
567.374	35332.51
567.583	35326.13
567.792	35320.62
568.001	35315.33
568.21	35298.53
568.419	35272.08
568.628	35257.4
568.837	35228
569.046	35204.2
569.255	35167.84
569.464	35149.44
569.673	35110.82
569.882	35069.95
570.091	35037.18
570.3	35000.29
570.509	34982.31
570.718	34976.6
570.927	34952.51
571.135	34936.57
571.344	34920.69
571.553	34916.09
571.762	34899.48
571.971	34905.58
572.18	34891.86
572.388	34872.97
572.597	34861.77
572.806	34842.15
573.014	34822.37
573.223	34801.69
573.432	34781.48
573.641	34750.57
573.849	34715.97
574.058	34685.26
574.266	34654.8
574.475	34635.62
574.684	34611.82
574.892	34591.2
575.101	34575.08
575.309	34547.13
575.518	34529.11
575.726	34515.51
575.935	34499.86
576.143	34483.68
576.352	34471.68
576.56	34452
576.769	34436.89
576.977	34424.78
577.186	34397.48
577.394	34370.58
577.602	34355.98
577.811	34332.06
578.019	34308.49
578.228	34291.84
578.436	34260.93
578.644	34231.95
578.852	34211.6
579.061	34185.22
579.269	34161.49
579.477	34146.95
579.685	34129.22
579.894	34104.88
580.102	34082.98
580.31	34066.09
580.518	34038.6
580.726	34027.04
580.935	34009.31
581.143	33981.08
581.351	33957.95
581.559	33932.75
581.767	33905.64
581.975	33883.95
582.183	33859.42
582.391	33836.78
582.599	33803.64
582.807	33781.51
583.015	33753.66
583.223	33726.58
583.431	33701.88
583.639	33686.69
583.847	33662.29
584.055	33641
584.263	33608.8
584.471	33580.62
584.678	33548.11
584.886	33529.2
585.094	33502.95
585.302	33480.24
585.51	33461.71
585.718	33436.51
585.925	33405.77
586.133	33382.24
586.341	33358.8
586.549	33342.89
586.756	33316.89
586.964	33300.69
587.172	33271.35
587.379	33244.93
587.587	33217.84
587.795	33184.78
588.002	33159.22
588.21	33133.26
588.417	33100.33
588.625	33068.6
588.833	33038.09
589.04	33012.98
589.248	32985
589.455	32957.11
589.663	32935.88
589.87	32908.97
590.078	32889.13
590.285	32863.78
590.492	32835.26
590.7	32819
590.907	32800.89
591.115	32771.24
591.322	32747.8
591.529	32718.66
591.737	32694.62
591.944	32658.11
592.151	32630.62
592.359	32598.91
592.566	32574.91
592.773	32538.97
592.981	32491.68
593.188	32453.09
593.395	32421.13
593.602	32387.48
593.809	32361.13
594.017	32330.66
594.224	32305.8
594.431	32276.49
594.638	32247.26
594.845	32205.93
595.052	32174.24
595.259	32156.02
595.466	32126.13
595.673	32105.66
595.88	32077.58
596.088	32054.64
596.295	32040.86
596.502	32008.04
596.709	31976.02
596.915	31954.64
597.122	31933.6
597.329	31914.69
597.536	31886.06
597.743	31856.88
597.95	31819.73
598.157	31786.93
598.364	31745.97
598.571	31691.44
598.777	31647.82
598.984	31596.6
599.191	31527.71
599.398	31478.53
599.605	31431.26
599.811	31376.68
600.018	31322.42
600.225	31267.22
600.431	31211.18
600.638	31174.06
600.845	31126.38
601.052	31098.31
601.258	31060.86
601.465	31020.35
601.671	30959.4
601.878	30887.8
602.085	30797.68
602.291	30695.53
602.498	30571.18
602.704	30429.97
602.911	30257.57
603.117	30079.88
603.324	29871.77
603.53	29655.46
603.737	29436.84
603.943	29198.49
604.15	28953.91
604.356	28705.58
604.562	28451.49
604.769	28199.48
604.975	27945.6
605.181	27687.2
605.388	27427.75
605.594	27161.98
605.8	26895.53
606.007	26630.35
606.213	26370.42
606.419	26095.84
606.625	25833.22
606.832	25570.93
607.038	25311.98
607.244	25041.58
607.45	24773.18
607.656	24508.42
607.863	24248.69
608.069	23989.38
608.275	23717.28
608.481	23445.78
608.687	23176.22
608.893	22910.02
609.099	22640.29
609.305	22367.46
609.511	22104.73
609.717	21830.17
609.923	21548.2
610.129	21257.6
610.335	20968.8
610.541	20685.15
610.747	20396.29
610.953	20105.44
611.159	19804.62
611.365	19503.2
611.571	19195.86
611.776	18885.75
611.982	18581.69
612.188	18270.15
612.394	17963.71
612.6	17654.58
612.806	17338.15
613.011	17025.09
613.217	16710.31
613.423	16401.09
613.628	16095.98
613.834	15795.97
614.04	15496.33
614.246	15200.38
614.451	14919.71
614.657	14642.44
614.862	14368.62
615.068	14106.89
615.274	13850.46
615.479	13598.89
615.685	13349.84
615.89	13100.35
616.096	12860.6
616.301	12617.51
616.507	12372.84
616.712	12127.84
616.918	11880.78
617.123	11630.69
617.329	11371.44
617.534	11105.73
617.74	10847.86
617.945	10583.62
618.15	10306.95
618.356	9866.77
618.561	9075.13
618.766	8117.66
618.972	7126.15
619.177	6161.38
619.382	5221.04
619.588	4308.22
619.793	3767.67
619.998	3128.28
620.203	2364.62
620.408	1442.28
620.614	537.43
