Data from test1_MAYP1115451__99__10-17-43-995.txt Node

Date: Wed Jun 12 10:17:43 MDT 2024
User: Modes Lab
Spectrometer: MAYP111545
Trigger mode: 0
Integration Time (sec): 8.000000E-3
Scans to average: 5
Electric dark correction enabled: true
Nonlinearity correction enabled: false
Boxcar width: 5
XAxis mode: Wavelengths
Number of Pixels in Spectrum: 2068
>>>>>Begin Spectral Data<<<<<
165.214	163.2
165.449	162.93
165.683	172.73
165.918	181.46
166.152	187.98
166.387	193.25
166.621	125.26
166.856	163.83
167.09	182.85
167.325	205.57
167.559	222.94
167.794	237.34
168.028	244.88
168.263	245.97
168.497	245.72
168.732	247.03
168.966	247.86
169.2	249.17
169.435	249.97
169.669	250.55
169.903	252.86
170.138	254.39
170.372	255.54
170.606	256.7
170.841	257.83
171.075	259.5
171.309	260.05
171.544	261.65
171.778	263.65
172.012	266.1
172.246	267.99
172.48	269.5
172.715	271.3
172.949	273.25
173.183	275.39
173.417	277.08
173.651	278.3
173.885	279.74
174.119	280.54
174.354	280.81
174.588	281.54
174.822	282.05
175.056	281.97
175.29	281.68
175.524	281.17
175.758	280.88
175.992	281.17
176.226	281.9
176.46	282.32
176.694	282.94
176.928	284.45
177.162	285.03
177.396	285.7
177.63	287.25
177.864	288.28
178.097	289.7
178.331	291.45
178.565	292.19
178.799	292.92
179.033	293.23
179.267	293.92
179.5	293.86
179.734	294.19
179.968	295.77
180.202	296.26
180.436	296.39
180.669	297.95
180.903	298.45
181.137	299.43
181.371	300.06
181.604	301.81
181.838	302.92
182.072	304.01
182.305	305.35
182.539	305.72
182.772	306.94
183.006	308.74
183.24	308.55
183.473	312.39
183.707	313.43
183.94	313.99
184.174	315.85
184.408	317.01
184.641	318.61
184.875	320.21
185.108	322.03
185.342	323.45
185.575	324.57
185.808	326.12
186.042	324.57
186.275	325.3
186.509	326.57
186.742	326.52
186.976	326.83
187.209	328.12
187.442	329.25
187.676	329.21
187.909	330.41
188.142	332.15
188.376	333.48
188.609	335.43
188.842	337.25
189.076	339.39
189.309	341.23
189.542	344.15
189.775	345.5
190.009	347.34
190.242	349.59
190.475	351.5
190.708	352.83
190.941	354.32
191.174	355.95
191.408	358.19
191.641	360.68
191.874	363.03
192.107	364.17
192.34	366.37
192.573	368.1
192.806	370.39
193.039	370.83
193.272	373.46
193.505	374.65
193.738	376.41
193.971	377.26
194.204	377.75
194.437	378.41
194.67	380.3
194.903	381.57
195.136	382.23
195.369	383.23
195.602	385.85
195.835	386.43
196.068	389.95
196.301	391.65
196.533	394.7
196.766	397.81
196.999	400.68
197.232	403.41
197.465	405.34
197.698	407.97
197.93	411.34
198.163	414.01
198.396	417.01
198.629	418.25
198.861	421.19
199.094	423.06
199.327	424.17
199.559	425.85
199.792	427.7
200.025	429.61
200.257	432.37
200.49	433.68
200.723	435.05
200.955	436.59
201.188	437.57
201.42	438.95
201.653	440.54
201.886	442.83
202.118	445.7
202.351	446.74
202.583	449.94
202.816	452.15
203.048	454.1
203.281	456.79
203.513	458.43
203.745	461.85
203.978	463.95
204.21	465.86
204.443	467.54
204.675	468.43
204.907	472.15
205.14	474.08
205.372	475.92
205.605	479.45
205.837	481.23
206.069	485.06
206.302	487.59
206.534	489.75
206.766	491.43
206.998	493.65
207.231	496.54
207.463	497.52
207.695	499.83
207.927	502.35
208.159	504.57
208.392	506.99
208.624	507.94
208.856	510.75
209.088	513.15
209.32	516.26
209.552	519.46
209.784	521.43
210.017	524.15
210.249	524.81
210.481	527.17
210.713	527.57
210.945	528.75
211.177	530.65
211.409	531.88
211.641	534.15
211.873	536.19
212.105	537.45
212.337	539.21
212.569	540.66
212.801	543.15
213.033	544.39
213.264	547.45
213.496	549.88
213.728	551.25
213.96	552.9
214.192	553.28
214.424	554.46
214.656	556.74
214.887	558.5
215.119	559.94
215.351	562.01
215.583	563.06
215.815	564.55
216.046	566.3
216.278	568.57
216.51	569.94
216.741	572.19
216.973	574.35
217.205	575.79
217.436	577.7
217.668	581.41
217.9	582.61
218.131	583.45
218.363	584.81
218.595	586.81
218.826	587.88
219.058	590.03
219.289	592.12
219.521	593.01
219.752	593.83
219.984	595.17
220.215	594.94
220.447	596.26
220.678	597.72
220.91	598.66
221.141	599.39
221.373	600.5
221.604	600.57
221.836	601.97
222.067	603.94
222.298	605.48
222.53	606.08
222.761	607.21
222.993	606.85
223.224	608.61
223.455	608.61
223.686	609.57
223.918	611.23
224.149	613.23
224.38	612.14
224.612	612.21
224.843	613.3
225.074	614.1
225.305	614.86
225.536	617.57
225.768	617.19
225.999	617.92
226.23	618.39
226.461	618.95
226.692	618.57
226.923	619.46
227.155	621.34
227.386	621.5
227.617	622.39
227.848	621.06
228.079	621.08
228.31	622.15
228.541	623.46
228.772	623.95
229.003	624.05
229.234	625.35
229.465	625.41
229.696	623.46
229.927	623.83
230.158	624.86
230.389	625.28
230.62	624.63
230.85	624.41
231.081	623.7
231.312	622.17
231.543	621.43
231.774	620.1
232.005	620.79
232.236	621.1
232.466	621.08
232.697	618.88
232.928	619.97
233.159	620.66
233.389	621.01
233.62	620.99
233.851	622.68
234.082	622.23
234.312	621.66
234.543	621.59
234.774	622.25
235.004	621.08
235.235	621.59
235.466	620.86
235.696	620.15
235.927	619.28
236.157	619.23
236.388	619.5
236.618	621.12
236.849	621.65
237.08	622.45
237.31	621.65
237.541	621.12
237.771	619.94
238.002	620.01
238.232	619.55
238.463	619.74
238.693	619.99
238.923	618.77
239.154	616.12
239.384	614.94
239.615	613.48
239.845	614.01
240.075	614.55
240.306	615.34
240.536	614.74
240.766	615.06
240.997	614.9
241.227	613.81
241.457	612.23
241.687	612.57
241.918	613.12
242.148	611.86
242.378	610.28
242.608	610.34
242.839	609.57
243.069	608.52
243.299	607.21
243.529	609.39
243.759	609.74
243.989	609.95
244.22	610.55
244.45	611.48
244.68	611.21
244.91	610.7
245.14	610.17
245.37	610.46
245.6	610.92
245.83	610.52
246.06	608.06
246.29	608.32
246.52	609.28
246.75	608.43
246.98	607.15
247.21	607.59
247.44	608.17
247.67	607.83
247.9	607.06
248.13	606.1
248.359	606.25
248.589	605.01
248.819	603.3
249.049	600.35
249.279	600.05
249.509	598.32
249.738	597.21
249.968	595.48
250.198	592.7
250.428	591.68
250.657	590.39
250.887	589.34
251.117	589.37
251.347	588.65
251.576	589.65
251.806	588.23
252.036	587.54
252.265	586.79
252.495	586.66
252.725	588.28
252.954	588.12
253.184	587.43
253.413	586.52
253.643	585.06
253.873	584.28
254.102	582.72
254.332	582.34
254.561	581.7
254.791	581.05
255.02	581.15
255.25	579.79
255.479	578.77
255.708	580.03
255.938	578.88
256.167	578.46
256.397	577.54
256.626	576.92
256.856	575.32
257.085	574.77
257.314	574.41
257.544	572.74
257.773	572.03
258.002	572.48
258.232	570.81
258.461	571.66
258.69	570.26
258.919	569.52
259.149	569.72
259.378	569.39
259.607	568.94
259.836	567.77
260.065	568.17
260.295	568.32
260.524	567.34
260.753	567.75
260.982	566.26
261.211	567.01
261.44	567.54
261.669	566.34
261.899	566.46
262.128	566.61
262.357	565.72
262.586	564.92
262.815	564.19
263.044	563.34
263.273	565.48
263.502	565.5
263.731	564.85
263.96	562.59
264.189	561.57
264.418	560.94
264.646	559.9
264.875	558.79
265.104	557.72
265.333	556.17
265.562	555.19
265.791	550.99
266.02	548.43
266.249	545.92
266.477	545.57
266.706	544.46
266.935	542.77
267.164	541.57
267.393	542.05
267.621	541.05
267.85	540.57
268.079	539.68
268.307	538.45
268.536	538.66
268.765	538.59
268.993	539.14
269.222	539.55
269.451	539.28
269.679	540.06
269.908	539.7
270.137	539.45
270.365	538.97
270.594	539.21
270.822	539.66
271.051	540.28
271.279	540.85
271.508	539.57
271.736	539.55
271.965	540.35
272.193	540.06
272.422	541.01
272.65	539.97
272.879	540.81
273.107	539.28
273.336	538.46
273.564	538.21
273.792	537.17
274.021	536.54
274.249	535.83
274.477	534.63
274.706	532.15
274.934	529.3
275.162	528.06
275.391	526.5
275.619	525.41
275.847	524.74
276.075	523.59
276.304	522.28
276.532	521.21
276.76	519.65
276.988	518.35
277.216	518.5
277.445	518.32
277.673	518.41
277.901	517.81
278.129	517.37
278.357	516.12
278.585	514.66
278.813	515.59
279.041	515.15
279.269	515.3
279.497	515.59
279.725	515.68
279.954	515.79
280.182	516.28
280.41	515.66
280.637	515.63
280.865	515.54
281.093	515.72
281.321	514.1
281.549	514.21
281.777	514.06
282.005	513.83
282.233	513.17
282.461	512.39
282.689	511.59
282.916	510.7
283.144	509.97
283.372	509.23
283.6	508.39
283.828	508.28
284.055	508.05
284.283	507.34
284.511	505.35
284.739	505.14
284.966	503.81
285.194	502.74
285.422	502.41
285.649	502.25
285.877	501.52
286.105	501.39
286.332	500.86
286.56	501.25
286.788	500.5
287.015	499.46
287.243	498.45
287.47	498.92
287.698	498.34
287.925	498.03
288.153	497.37
288.381	497.41
288.608	497.17
288.836	495.68
289.063	494.37
289.29	493.59
289.518	495.01
289.745	494.61
289.973	493.79
290.2	492.92
290.428	492.45
290.655	491.34
290.882	491.77
291.11	491.57
291.337	491.85
291.564	490.81
291.792	490.46
292.019	489.08
292.246	487.01
292.473	485.41
292.701	484.7
292.928	484.55
293.155	483.92
293.382	482.19
293.61	481.08
293.837	480.3
294.064	479.97
294.291	479.39
294.518	478.99
294.745	479.03
294.972	480.01
295.2	480.1
295.427	479.35
295.654	479.5
295.881	478.77
296.108	477.97
296.335	477.05
296.562	476.81
296.789	475.88
297.016	475.77
297.243	475.03
297.47	474.54
297.697	473.63
297.924	472.66
298.151	471.25
298.378	470.3
298.604	468.63
298.831	468.48
299.058	467.32
299.285	468.3
299.512	467.81
299.739	468.17
299.966	467.68
300.192	467.48
300.419	467.88
300.646	468.3
300.873	468.21
301.099	469.23
301.326	467.85
301.553	469.06
301.78	467.74
302.006	465.97
302.233	465.66
302.46	464.92
302.686	463.77
302.913	461.88
303.14	460.06
303.366	460.72
303.593	460.39
303.819	460.61
304.046	458.28
304.272	458.48
304.499	459.05
304.725	459.01
304.952	458.06
305.179	457.88
305.405	457.99
305.631	458.57
305.858	458.48
306.084	457.17
306.311	457.77
306.537	457.5
306.764	456.14
306.99	457.43
307.216	456.68
307.443	457.08
307.669	457.06
307.895	457.41
308.122	456.83
308.348	455.59
308.574	454.66
308.801	454.14
309.027	454.55
309.253	455.01
309.479	453.3
309.706	453.9
309.932	452.1
310.158	452.43
310.384	451.46
310.61	452.74
310.837	453.63
311.063	454.79
311.289	454.94
311.515	454.54
311.741	454.15
311.967	454.7
312.193	454.03
312.419	455.5
312.645	455.01
312.871	454.01
313.097	454.03
313.323	452.54
313.549	453.23
313.775	453.1
314.001	452.65
314.227	453.03
314.453	453.59
314.679	453.74
314.905	454.01
315.131	453.97
315.357	455.9
315.583	455.41
315.809	456.39
316.034	456.05
316.26	456.63
316.486	458.54
316.712	458.48
316.938	458.1
317.163	457.97
317.389	458.01
317.615	458.7
317.841	458.59
318.066	458.85
318.292	458.72
318.518	459.48
318.743	459.37
318.969	459.17
319.195	460.57
319.42	461.52
319.646	463.37
319.872	463.45
320.097	464.9
320.323	466.03
320.548	467.97
320.774	469.06
320.999	470.21
321.225	472.15
321.45	473.79
321.676	474.45
321.901	476.08
322.127	475.81
322.352	477.95
322.578	479.88
322.803	481.06
323.029	481.39
323.254	482.72
323.479	483.66
323.705	485.08
323.93	485.34
324.155	487.19
324.381	488.46
324.606	491.05
324.831	493.46
325.057	494.79
325.282	497.63
325.507	500.12
325.732	503.15
325.958	505.05
326.183	507.57
326.408	509.79
326.633	511.88
326.858	513.81
327.084	516.54
327.309	518.57
327.534	522.14
327.759	524.28
327.984	527.72
328.209	529.88
328.434	533.75
328.659	537.21
328.884	541.94
329.109	544.48
329.334	547.97
329.559	551.05
329.784	553.9
330.009	556.3
330.234	559.08
330.459	561.99
330.684	565.92
330.909	569.54
331.134	571.99
331.359	575.39
331.584	578.81
331.809	584.05
332.034	588.75
332.259	594.63
332.483	600.06
332.708	605.23
332.933	610.08
333.158	614.85
333.383	620.08
333.607	626.1
333.832	630.75
334.057	637.17
334.282	639.08
334.506	643.5
334.731	648.3
334.956	652.77
335.18	657.06
335.405	662.37
335.63	668.14
335.854	673.79
336.079	678.3
336.303	683.85
336.528	688.32
336.753	696.83
336.977	702.94
337.202	709.55
337.426	716.01
337.651	723.54
337.875	730.41
338.1	737.52
338.324	743.19
338.549	751.77
338.773	759.41
338.997	766.57
339.222	772.75
339.446	778.99
339.671	785.7
339.895	793.17
340.119	800.54
340.344	809.21
340.568	816.19
340.792	824.85
341.017	829.92
341.241	837.1
341.465	846.34
341.689	854.63
341.914	863.37
342.138	871.35
342.362	879.46
342.586	888.3
342.811	894.95
343.035	901.39
343.259	909.03
343.483	919.7
343.707	928.86
343.931	937.68
344.155	947.83
344.38	956.34
344.604	965.35
344.828	974.06
345.052	983.34
345.276	991.48
345.5	1002.63
345.724	1011.75
345.948	1020.74
346.172	1029.94
346.396	1040.05
346.62	1050.54
346.844	1063.34
347.068	1073.77
347.292	1084.15
347.515	1093.85
347.739	1105.39
347.963	1116.19
348.187	1128.57
348.411	1138.92
348.635	1148.97
348.859	1158.25
349.082	1167.48
349.306	1176.05
349.53	1185.23
349.754	1194.75
349.977	1205.75
350.201	1215.88
350.425	1225.66
350.649	1233.5
350.872	1243.97
351.096	1256.06
351.32	1266.35
351.543	1276.68
351.767	1289.37
351.99	1302.59
352.214	1314.19
352.438	1323.99
352.661	1337.61
352.885	1349.9
353.108	1362.26
353.332	1374.39
353.555	1385.48
353.779	1397.45
354.002	1407.26
354.226	1417.7
354.449	1428.66
354.673	1439.99
354.896	1451.81
355.12	1462.85
355.343	1473.81
355.566	1486.55
355.79	1500.35
356.013	1512.77
356.237	1525.79
356.46	1541.83
356.683	1552.37
356.907	1564.35
357.13	1578.74
357.353	1590.26
357.576	1601.81
357.8	1615.88
358.023	1628.63
358.246	1638.81
358.469	1651.77
358.693	1661.9
358.916	1673.01
359.139	1688.5
359.362	1701.14
359.585	1711.55
359.808	1725.37
360.031	1739.1
360.255	1753.06
360.478	1765.85
360.701	1779.08
360.924	1790.88
361.147	1805.54
361.37	1819.95
361.593	1831.94
361.816	1844.59
362.039	1860.39
362.262	1874.32
362.485	1887.17
362.708	1899.15
362.931	1913.37
363.154	1926.63
363.377	1940.66
363.599	1957.37
363.822	1968.12
364.045	1983.94
364.268	2000.68
364.491	2014.66
364.714	2028.63
364.936	2044.79
365.159	2060.23
365.382	2074.75
365.605	2092.1
365.828	2107.3
366.05	2120.1
366.273	2135.81
366.496	2149.52
366.718	2162.57
366.941	2176.48
367.164	2193.85
367.386	2207.08
367.609	2223.48
367.832	2239.26
368.054	2253.57
368.277	2269.37
368.5	2286.46
368.722	2302.66
368.945	2319.32
369.167	2337.55
369.39	2354.63
369.612	2369.41
369.835	2385.97
370.057	2401.3
370.28	2416.26
370.502	2433.9
370.725	2450.37
370.947	2464.32
371.169	2484.25
371.392	2501.05
371.614	2516.88
371.837	2533.5
372.059	2549.41
372.281	2566.01
372.504	2582.57
372.726	2601.19
372.948	2617.43
373.171	2636.79
373.393	2656.17
373.615	2670.08
373.837	2685.75
374.06	2702.59
374.282	2721.77
374.504	2738.97
374.726	2756.7
374.948	2775.41
375.17	2793.12
375.393	2811.83
375.615	2829.54
375.837	2848.59
376.059	2870.19
376.281	2890.61
376.503	2907.48
376.725	2926.12
376.947	2948.01
377.169	2970.14
377.391	2988.12
377.613	3011.15
377.835	3029.15
378.057	3048.68
378.279	3072.66
378.501	3092.66
378.723	3114.37
378.945	3140.7
379.167	3163.03
379.389	3185.14
379.611	3207.43
379.833	3228.97
380.054	3249.19
380.276	3275.55
380.498	3298.9
380.72	3320.17
380.942	3343.74
381.163	3367.5
381.385	3389.72
381.607	3410.48
381.829	3435.81
382.05	3460.48
382.272	3488.08
382.494	3512.65
382.716	3539.06
382.937	3564.21
383.159	3588.97
383.381	3613.39
383.602	3638.54
383.824	3665.06
384.045	3694.46
384.267	3718.35
384.488	3745.34
384.71	3770.7
384.932	3797.59
385.153	3820.66
385.375	3848.1
385.596	3871.43
385.818	3899.26
386.039	3925.68
386.261	3950.43
386.482	3978.54
386.703	4005.55
386.925	4033.95
387.146	4061.05
387.368	4087.15
387.589	4114.25
387.81	4144.39
388.032	4175.21
388.253	4207.52
388.474	4238.83
388.696	4264.25
388.917	4290.52
389.138	4322.39
389.359	4348.08
389.581	4377.17
389.802	4407.63
390.023	4438.97
390.244	4465.75
390.465	4494.3
390.687	4523.01
390.908	4550.23
391.129	4586.85
391.35	4618.32
391.571	4646.15
391.792	4677.52
392.013	4707.81
392.234	4739.75
392.455	4770.32
392.677	4803.88
392.898	4836.32
393.119	4866.7
393.34	4897.48
393.561	4924.75
393.782	4958.7
394.003	4993.25
394.223	5025.06
394.444	5060.34
394.665	5092.28
394.886	5124.74
395.107	5157.06
395.328	5190.72
395.549	5225.52
395.77	5260.19
395.99	5296.88
396.211	5330.92
396.432	5366.19
396.653	5402.52
396.874	5433.72
397.094	5467.21
397.315	5503.3
397.536	5534.34
397.757	5566.92
397.977	5596.94
398.198	5628.66
398.419	5661.37
398.639	5695.48
398.86	5728.52
399.081	5758.34
399.301	5791.55
399.522	5823.39
399.742	5856.05
399.963	5892.7
400.184	5926.61
400.404	5961.54
400.625	5996.63
400.845	6030.17
401.066	6060.63
401.286	6093.55
401.507	6127.1
401.727	6161.74
401.948	6196.74
402.168	6231.19
402.388	6265.41
402.609	6302.57
402.829	6338.25
403.05	6370.46
403.27	6408.65
403.49	6446.01
403.711	6480.32
403.931	6514.08
404.151	6546.59
404.372	6581.05
404.592	6614.45
404.812	6649.43
405.032	6681.77
405.253	6716.77
405.473	6751.35
405.693	6783.92
405.913	6816.23
406.133	6849.46
406.353	6892.97
406.574	6933.34
406.794	6968.85
407.014	7002.37
407.234	7038.03
407.454	7074.28
407.674	7105.25
407.894	7144.59
408.114	7180.52
408.334	7218.19
408.554	7255.88
408.774	7287.08
408.994	7319.97
409.214	7353.25
409.434	7393.3
409.654	7425.88
409.874	7462.46
410.094	7505.72
410.314	7543.15
410.534	7581.28
410.754	7613.63
410.974	7649.52
411.193	7685.72
411.413	7723.06
411.633	7764.03
411.853	7796.75
412.073	7832.95
412.292	7867.46
412.512	7903.06
412.732	7942.12
412.952	7979.86
413.171	8026.52
413.391	8069.7
413.611	8110.9
413.831	8156.95
414.05	8198.7
414.27	8245.5
414.489	8293.14
414.709	8339.1
414.929	8378.88
415.148	8417.48
415.368	8457.9
415.587	8497.28
415.807	8541.61
416.026	8582.92
416.246	8622.34
416.465	8664.32
416.685	8707.21
416.904	8746.26
417.124	8788.46
417.343	8836.57
417.563	8882.3
417.782	8929.43
418.002	8973.65
418.221	9018.95
418.44	9068.05
418.66	9109.55
418.879	9152.75
419.098	9197.5
419.318	9243.39
419.537	9288.45
419.756	9333.12
419.976	9380.79
420.195	9423.15
420.414	9466.19
420.633	9503.55
420.853	9546.23
421.072	9592.21
421.291	9637.01
421.51	9678.66
421.729	9722.48
421.948	9767.72
422.168	9806.15
422.387	9844.12
422.606	9886.48
422.825	9930.21
423.044	9974.63
423.263	10013.1
423.482	10060.94
423.701	10107.95
423.92	10154.41
424.139	10198.9
424.358	10244.83
424.577	10290.26
424.796	10339.23
425.015	10388.23
425.234	10437.86
425.453	10483.92
425.672	10528.85
425.891	10574.25
426.11	10623.05
426.328	10668.5
426.547	10714.88
426.766	10759.17
426.985	10803.52
427.204	10853.3
427.422	10899.14
427.641	10946.01
427.86	10995.95
428.079	11049.57
428.297	11099.99
428.516	11144.57
428.735	11192.12
428.954	11240.41
429.172	11285.77
429.391	11336.12
429.61	11385.81
429.828	11434.41
430.047	11478.61
430.265	11521.55
430.484	11564.99
430.703	11605.39
430.921	11652.14
431.14	11695.45
431.358	11743.94
431.577	11793.75
431.795	11843.05
432.014	11890.19
432.232	11937.23
432.451	11989.3
432.669	12043.35
432.887	12093.3
433.106	12141.12
433.324	12187.54
433.543	12240.25
433.761	12289.05
433.979	12338.72
434.198	12384.85
434.416	12427.45
434.634	12473.92
434.853	12518.3
435.071	12559.94
435.289	12605.25
435.507	12651.66
435.726	12700.72
435.944	12745.15
436.162	12791.19
436.38	12835.66
436.598	12880.74
436.817	12923.79
437.035	12970.79
437.253	13015.75
437.471	13059.86
437.689	13110.52
437.907	13161.08
438.125	13208.39
438.343	13260.28
438.561	13310.95
438.78	13361.99
438.998	13411.26
439.216	13462.32
439.434	13507.23
439.652	13558.35
439.869	13614.14
440.087	13658.68
440.305	13704.1
440.523	13752.54
440.741	13797.3
440.959	13839.55
441.177	13886.14
441.395	13938.68
441.613	13986.52
441.831	14033.08
442.048	14078.92
442.266	14118.45
442.484	14168.61
442.702	14218.57
442.919	14263.61
443.137	14312.41
443.355	14361.74
443.573	14416.25
443.79	14465.32
444.008	14513.26
444.226	14572.61
444.443	14615.34
444.661	14674.79
444.879	14714.9
445.096	14764.9
445.314	14815.32
445.532	14863.83
445.749	14909.05
445.967	14948.1
446.184	14991.85
446.402	15043.5
446.619	15082.19
446.837	15134.81
447.054	15175.94
447.272	15230.08
447.489	15271.86
447.707	15320.97
447.924	15372.46
448.141	15426.75
448.359	15475.63
448.576	15524.55
448.794	15573.85
449.011	15621.9
449.228	15673.25
449.446	15717.32
449.663	15768.94
449.88	15817.85
450.098	15865.45
450.315	15909.75
450.532	15955.35
450.749	16005.39
450.967	16054.57
451.184	16097.72
451.401	16143.55
451.618	16187.81
451.835	16239.52
452.052	16286.54
452.27	16337.54
452.487	16383.81
452.704	16428.05
452.921	16480.23
453.138	16524.94
453.355	16572.35
453.572	16621.43
453.789	16670.32
454.006	16719.54
454.223	16767.39
454.44	16812.79
454.657	16860.83
454.874	16902.72
455.091	16951.17
455.308	16993.12
455.525	17036.79
455.742	17082.9
455.959	17135.01
456.176	17189.3
456.393	17237.68
456.609	17282.48
456.826	17332.74
457.043	17379.59
457.26	17429.35
457.477	17479.46
457.693	17528.34
457.91	17575.32
458.127	17613.5
458.344	17656.06
458.56	17694.26
458.777	17734.06
458.994	17769.86
459.21	17797.05
459.427	17826.72
459.644	17860.9
459.86	17888.1
460.077	17917.15
460.294	17955.88
460.51	17998.21
460.727	18023.28
460.943	18060.05
461.16	18091.83
461.376	18138.5
461.593	18181.72
461.809	18226.63
462.026	18272.23
462.242	18317.54
462.459	18358.28
462.675	18399.45
462.892	18436.3
463.108	18483.08
463.324	18520.7
463.541	18565.37
463.757	18605.66
463.974	18649.01
464.19	18696.72
464.406	18740.43
464.623	18785.48
464.839	18840.61
465.055	18885.92
465.271	18928.85
465.488	18978.03
465.704	19032.01
465.92	19080.03
466.136	19124.48
466.353	19178.65
466.569	19221.81
466.785	19271.72
467.001	19327.46
467.217	19373.32
467.433	19421.57
467.649	19486.45
467.865	19544.23
468.082	19599.95
468.298	19662.37
468.514	19723.94
468.73	19787.61
468.946	19859.7
469.162	19926.08
469.378	19984.19
469.594	20047.39
469.81	20117.99
470.026	20177.25
470.242	20239.12
470.457	20304.28
470.673	20367.9
470.889	20440.26
471.105	20500.1
471.321	20567.74
471.537	20631.19
471.753	20701.86
471.968	20773.86
472.184	20845.17
472.4	20919.08
472.616	20996.72
472.832	21074.85
473.047	21155.28
473.263	21225.34
473.479	21301.54
473.694	21370.39
473.91	21447.34
474.126	21529.21
474.341	21601.45
474.557	21673.77
474.773	21739.92
474.988	21803.66
475.204	21864.9
475.42	21934.72
475.635	22005.83
475.851	22073.54
476.066	22142.08
476.282	22210.52
476.497	22270.41
476.713	22343.66
476.928	22402.26
477.144	22476.65
477.359	22549.63
477.575	22619.5
477.79	22680.45
478.005	22739.57
478.221	22806.59
478.436	22862.41
478.651	22916.94
478.867	22969.08
479.082	23026.46
479.297	23093.59
479.513	23149.5
479.728	23191.7
479.943	23246.59
480.159	23297.75
480.374	23350.79
480.589	23404.03
480.804	23460.28
481.019	23507.25
481.235	23561.95
481.45	23606.72
481.665	23652.37
481.88	23705.59
482.095	23768.5
482.31	23812.12
482.525	23856.72
482.741	23907.97
482.956	23951.48
483.171	24001.86
483.386	24055.08
483.601	24102.72
483.816	24146.63
484.031	24184.46
484.246	24227.19
484.461	24260.5
484.676	24306.48
484.891	24353.03
485.105	24386.52
485.32	24431.65
485.535	24470.26
485.75	24510.19
485.965	24560.43
486.18	24606.3
486.395	24651.41
486.609	24690.3
486.824	24739.25
487.039	24783.99
487.254	24820.14
487.469	24870.21
487.683	24907.32
487.898	24947.65
488.113	24990.03
488.327	25017.57
488.542	25059.63
488.757	25108.9
488.972	25147.37
489.186	25174.88
489.401	25211.79
489.615	25251.35
489.83	25287.99
490.045	25323.19
490.259	25361.34
490.474	25400.3
490.688	25437.34
490.903	25461.55
491.117	25490.54
491.332	25517.63
491.546	25548.54
491.761	25578.59
491.975	25612.39
492.19	25647.08
492.404	25679.7
492.618	25706.23
492.833	25728.65
493.047	25758.79
493.262	25793.14
493.476	25819.5
493.69	25854.81
493.905	25891.37
494.119	25919.63
494.333	25949.65
494.547	25973.41
494.762	26000.1
494.976	26025.17
495.19	26057.95
495.404	26088.25
495.619	26122.65
495.833	26147.85
496.047	26173.88
496.261	26191.75
496.475	26202.94
496.689	26208.23
496.903	26220.19
497.117	26225.21
497.332	26229.17
497.546	26224.85
497.76	26213.37
497.974	26190.59
498.188	26182.15
498.402	26162.97
498.616	26151.12
498.83	26144.34
499.044	26134.92
499.258	26129.12
499.472	26127.37
499.685	26126.59
499.899	26133.52
500.113	26138.95
500.327	26156.83
500.541	26167.1
500.755	26177.57
500.969	26195.77
501.183	26213.43
501.396	26238.86
501.61	26260.52
501.824	26292.45
502.038	26315.17
502.251	26331.75
502.465	26355.97
502.679	26373.37
502.892	26397.05
503.106	26412.72
503.32	26435.83
503.533	26448.5
503.747	26467.05
503.961	26486.21
504.174	26495.74
504.388	26525.48
504.602	26560.9
504.815	26592.05
505.029	26630.88
505.242	26669.26
505.456	26720.74
505.669	26763.55
505.883	26825.28
506.096	26879.37
506.31	26932.23
506.523	26981.86
506.736	27025.55
506.95	27071.34
507.163	27123.17
507.377	27175.72
507.59	27228.14
507.803	27290.7
508.017	27357.1
508.23	27411.68
508.443	27468.52
508.657	27534.81
508.87	27602.48
509.083	27677.28
509.296	27752.77
509.51	27832.14
509.723	27913.15
509.936	27997.95
510.149	28082.72
510.363	28167.46
510.576	28254.41
510.789	28348.63
511.002	28434.55
511.215	28538.06
511.428	28636.7
511.641	28736.7
511.854	28836.25
512.067	28925.65
512.28	29021.88
512.493	29114.35
512.707	29210.63
512.92	29309.3
513.132	29407.77
513.345	29511.06
513.558	29607.94
513.771	29710.08
513.984	29815.05
514.197	29926.9
514.41	30034.19
514.623	30139.61
514.836	30246.7
515.049	30350.28
515.262	30461.81
515.474	30573.28
515.687	30675.95
515.9	30787.12
516.113	30886.48
516.325	30982.32
516.538	31071.15
516.751	31167.74
516.964	31252.35
517.176	31340.23
517.389	31428.08
517.602	31514.35
517.814	31592.28
518.027	31678.5
518.24	31750.75
518.452	31827.37
518.665	31911.34
518.877	31991.92
519.09	32068.37
519.303	32142.1
519.515	32205.72
519.728	32275.97
519.94	32335.74
520.153	32398.61
520.365	32457.17
520.578	32528.03
520.79	32593.08
521.002	32654.12
521.215	32701.1
521.427	32764.23
521.64	32825.81
521.852	32893.15
522.064	32943.08
522.277	32999.81
522.489	33056.28
522.701	33104.95
522.914	33154.43
523.126	33205.45
523.338	33245.97
523.551	33292.43
523.763	33337.83
523.975	33380.9
524.187	33422.05
524.399	33472.43
524.612	33519.37
524.824	33567.7
525.036	33610.46
525.248	33652.59
525.46	33686.65
525.672	33727.75
525.884	33772.65
526.096	33803.77
526.308	33842.05
526.521	33874.34
526.733	33911.59
526.945	33937.19
527.157	33969.34
527.369	34002.63
527.581	34026.81
527.793	34051.14
528.004	34079.32
528.216	34104.65
528.428	34140.65
528.64	34171.06
528.852	34200.97
529.064	34227.5
529.276	34261.12
529.488	34285.32
529.699	34316.03
529.911	34339.05
530.123	34370.77
530.335	34385.46
530.547	34413.92
530.758	34432.55
530.97	34457.83
531.182	34485.63
531.393	34509.14
531.605	34546.08
531.817	34580.88
532.029	34616.85
532.24	34649.9
532.452	34680.74
532.663	34711.65
532.875	34730.65
533.087	34758.99
533.298	34782.54
533.51	34803.99
533.721	34825.97
533.933	34840.88
534.144	34850.01
534.356	34859.45
534.567	34876.63
534.779	34897.03
534.99	34915.77
535.202	34946.9
535.413	34962.01
535.624	34980.32
535.836	34997.83
536.047	35011.66
536.259	35021.68
536.47	35035.25
536.681	35049.15
536.893	35061.12
537.104	35077.55
537.315	35096.06
537.526	35104.75
537.738	35121.12
537.949	35136.97
538.16	35160.06
538.371	35187.35
538.582	35203.46
538.794	35226.19
539.005	35243.14
539.216	35262.88
539.427	35276.5
539.638	35299.77
539.849	35317.28
540.06	35326.46
540.272	35334.32
540.483	35334.52
540.694	35331.86
540.905	35347.01
541.116	35354.74
541.327	35368.66
541.538	35379.52
541.749	35383.25
541.96	35381.32
542.17	35393.55
542.381	35403.12
542.592	35411.1
542.803	35419.48
543.014	35424.48
543.225	35423.48
543.436	35424.08
543.647	35425.94
543.857	35430.28
544.068	35441.85
544.279	35459.7
544.49	35459.68
544.701	35466.77
544.911	35486.57
545.122	35492.66
545.333	35508.81
545.543	35520.72
545.754	35540.83
545.965	35550.5
546.175	35557.92
546.386	35565.63
546.597	35559.66
546.807	35575.46
547.018	35583.7
547.229	35575.63
547.439	35580.74
547.65	35583.59
547.86	35591.95
548.071	35593.77
548.281	35597.08
548.492	35598.85
548.702	35604.72
548.913	35619.48
549.123	35618.52
549.333	35621.66
549.544	35628.9
549.754	35651.32
549.965	35660.95
550.175	35669.65
550.385	35679.17
550.596	35697.25
550.806	35707.5
551.016	35719.08
551.227	35729.03
551.437	35734.83
551.647	35748.1
551.857	35770.81
552.068	35779.46
552.278	35788.61
552.488	35794.83
552.698	35804.66
552.908	35803.34
553.119	35807.52
553.329	35803.55
553.539	35791.5
553.749	35795.01
553.959	35791.03
554.169	35772.45
554.379	35759.03
554.589	35753.1
554.799	35750.28
555.009	35749.35
555.219	35744.48
555.429	35739.57
555.639	35741.23
555.849	35745.5
556.059	35743.19
556.269	35725.95
556.479	35720.61
556.689	35726.94
556.899	35721.57
557.109	35727.21
557.319	35720.59
557.528	35719.79
557.738	35720.94
557.948	35710.65
558.158	35699.26
558.368	35687.83
558.577	35702.01
558.787	35716.81
558.997	35705.59
559.207	35698.63
559.416	35680.17
559.626	35663.43
559.836	35654.83
560.045	35645.94
560.255	35645.41
560.465	35653.94
560.674	35657.68
560.884	35650.41
561.093	35634.21
561.303	35624.19
561.512	35620.7
561.722	35610.55
561.932	35602.9
562.141	35588.68
562.351	35581.48
562.56	35575.28
562.769	35568.1
562.979	35555.48
563.188	35557.68
563.398	35558.03
563.607	35549.23
563.817	35552.54
564.026	35559.28
564.235	35560.26
564.445	35559.55
564.654	35545.81
564.863	35532.39
565.073	35518.95
565.282	35498.97
565.491	35472.12
565.7	35448.39
565.91	35429.54
566.119	35409.37
566.328	35383.66
566.537	35371.39
566.746	35353.54
566.956	35346.7
567.165	35338.81
567.374	35325.25
567.583	35324.25
567.792	35310.83
568.001	35305.15
568.21	35298.55
568.419	35262.32
568.628	35236.35
568.837	35206.59
569.046	35177.72
569.255	35140.52
569.464	35110.12
569.673	35073.15
569.882	35046.79
570.091	35021.05
570.3	34990.88
570.509	34959.94
570.718	34951.9
570.927	34945.97
571.135	34928.15
571.344	34920.5
571.553	34920.35
571.762	34900.72
571.971	34892.86
572.18	34877.68
572.388	34866.03
572.597	34849.05
572.806	34840.01
573.014	34817.94
573.223	34794.57
573.432	34766.55
573.641	34749.81
573.849	34722.95
574.058	34706.65
574.266	34677.63
574.475	34652.63
574.684	34624.21
574.892	34599.85
575.101	34577.57
575.309	34562.99
575.518	34541.41
575.726	34528.15
575.935	34511.72
576.143	34489.85
576.352	34461.19
576.56	34452.92
576.769	34437.77
576.977	34425.01
577.186	34406.86
577.394	34385.52
577.602	34355.1
577.811	34333.57
578.019	34311.68
578.228	34286.06
578.436	34263.7
578.644	34247.43
578.852	34208.54
579.061	34174.3
579.269	34153.39
579.477	34132.83
579.685	34111.88
579.894	34094.28
580.102	34068.88
580.31	34044.65
580.518	34021.88
580.726	34000.83
580.935	33988.81
581.143	33973.34
581.351	33955.65
581.559	33921.99
581.767	33897.48
581.975	33871.72
582.183	33849.55
582.391	33836.57
582.599	33820.39
582.807	33795.14
583.015	33765.32
583.223	33729.95
583.431	33715.43
583.639	33688.06
583.847	33670.54
584.055	33638.85
584.263	33617.61
584.471	33599.63
584.678	33567.41
584.886	33542.34
585.094	33511.35
585.302	33491.01
585.51	33460.52
585.718	33434.94
585.925	33427.54
586.133	33405.39
586.341	33389.03
586.549	33368.75
586.756	33335.28
586.964	33306.05
587.172	33270.55
587.379	33252.5
587.587	33225.03
587.795	33203.86
588.002	33174.08
588.21	33142.88
588.417	33110.83
588.625	33081.95
588.833	33041.59
589.04	33009.17
589.248	32991.54
589.455	32965.85
589.663	32934.79
589.87	32909.23
590.078	32882.41
590.285	32859.59
590.492	32824.68
590.7	32798.43
590.907	32769.88
591.115	32747.41
591.322	32731.65
591.529	32687.05
591.737	32659.05
591.944	32630.32
592.151	32602.59
592.359	32575.08
592.566	32539.83
592.773	32511.15
592.981	32472.9
593.188	32442.57
593.395	32403.66
593.602	32373.1
593.809	32349.37
594.017	32325.63
594.224	32291.77
594.431	32257.75
594.638	32218.88
594.845	32187.77
595.052	32152.01
595.259	32144.34
595.466	32118.35
595.673	32101.9
595.88	32078.45
596.088	32050.52
596.295	32024.74
596.502	32001.26
596.709	31981.45
596.915	31963.35
597.122	31937.7
597.329	31911.94
597.536	31868.23
597.743	31839.1
597.95	31812.08
598.157	31772.19
598.364	31739.25
598.571	31689.57
598.777	31639.72
598.984	31582.65
599.191	31528.03
599.398	31465.92
599.605	31416.97
599.811	31364.34
600.018	31305.25
600.225	31243.17
600.431	31190.86
600.638	31144.14
600.845	31110.35
601.052	31080.28
601.258	31061.77
601.465	31010.19
601.671	30958.88
601.878	30883.74
602.085	30815.26
602.291	30712.45
602.498	30594.35
602.704	30452.26
602.911	30287.48
603.117	30103.99
603.324	29899.65
603.53	29657.65
603.737	29437.05
603.943	29205.28
604.15	28961.59
604.356	28700.19
604.562	28451.79
604.769	28196.14
604.975	27938.75
605.181	27686.34
605.388	27422.59
605.594	27153.46
605.8	26906.9
606.007	26642.52
606.213	26375.83
606.419	26110.54
606.625	25839.65
606.832	25574.63
607.038	25309.57
607.244	25045.23
607.45	24770.88
607.656	24505.41
607.863	24246.19
608.069	23976.41
608.275	23714.7
608.481	23451.55
608.687	23183.12
608.893	22917.5
609.099	22646.75
609.305	22370.99
609.511	22097.34
609.717	21828.68
609.923	21551.32
610.129	21263.63
610.335	20971.86
610.541	20673.75
610.747	20374.12
610.953	20082.06
611.159	19774.95
611.365	19474.52
611.571	19174.46
611.776	18866.45
611.982	18553.3
612.188	18242.83
612.394	17934.25
612.6	17626.79
612.806	17318.52
613.011	17009.46
613.217	16697.03
613.423	16395.54
613.628	16093.25
613.834	15789.5
614.04	15494.35
614.246	15203.05
614.451	14918.41
614.657	14646.81
614.862	14370.77
615.068	14109.97
615.274	13852.54
615.479	13602.7
615.685	13352.21
615.89	13102.55
616.096	12863.81
616.301	12620.17
616.507	12379.7
616.712	12128.48
616.918	11873.54
617.123	11624.55
617.329	11364.74
617.534	11102.79
617.74	10838.39
617.945	10577.46
618.15	10295.43
618.356	9860.63
618.561	9067.65
618.766	8109.32
618.972	7125.35
619.177	6162.9
619.382	5223.61
619.588	4311.23
619.793	3768.52
619.998	3132.43
620.203	2367.32
620.408	1448.59
620.614	539.77
