Data from test1_MAYP1115451__60__10-17-29-708.txt Node

Date: Wed Jun 12 10:17:29 MDT 2024
User: Modes Lab
Spectrometer: MAYP111545
Trigger mode: 0
Integration Time (sec): 8.000000E-3
Scans to average: 5
Electric dark correction enabled: true
Nonlinearity correction enabled: false
Boxcar width: 5
XAxis mode: Wavelengths
Number of Pixels in Spectrum: 2068
>>>>>Begin Spectral Data<<<<<
165.214	164.13
165.449	164.83
165.683	173.47
165.918	182.4
166.152	188.86
166.387	194.36
166.621	126.31
166.856	165.02
167.09	184.4
167.325	208.05
167.559	224.69
167.794	238.33
168.028	245.91
168.263	247.15
168.497	247.42
168.732	248.45
168.966	249.29
169.2	250.65
169.435	252.29
169.669	252.96
169.903	255.07
170.138	255.98
170.372	257.29
170.606	258.47
170.841	260.49
171.075	261.38
171.309	262.47
171.544	263.85
171.778	266.29
172.012	267.62
172.246	269.45
172.48	271.42
172.715	273.76
172.949	276.75
173.183	278.09
173.417	279.84
173.651	281.33
173.885	283.67
174.119	285.05
174.354	284.53
174.588	285.05
174.822	285.96
175.056	285.02
175.29	285.11
175.524	283.87
175.758	283.98
175.992	282.96
176.226	283.51
176.46	282.8
176.694	282.84
176.928	284.96
177.162	285.93
177.396	286.51
177.63	288.18
177.864	288.76
178.097	289.75
178.331	291.87
178.565	294.11
178.799	294.65
179.033	295.78
179.267	297.13
179.5	297.22
179.734	297.45
179.968	298.64
180.202	298.84
180.436	300.18
180.669	301.45
180.903	302
181.137	303.22
181.371	304.36
181.604	304.84
181.838	305.89
182.072	307.24
182.305	308.84
182.539	310
182.772	311.38
183.006	312.6
183.24	312.29
183.473	315.42
183.707	316
183.94	316.15
184.174	317.49
184.408	317.8
184.641	317.82
184.875	318.24
185.108	319.78
185.342	321.4
185.575	322.31
185.808	325
186.042	323.42
186.275	324.31
186.509	326.55
186.742	328.05
186.976	329.82
187.209	331.02
187.442	333.33
187.676	333.45
187.909	334.38
188.142	335.24
188.376	336.56
188.609	338.36
188.842	339.76
189.076	341.22
189.309	342.2
189.542	343.18
189.775	344.95
190.009	346.87
190.242	348.8
190.475	349.95
190.708	352.55
190.941	353.85
191.174	355.29
191.408	356.89
191.641	358.49
191.874	360.25
192.107	362.62
192.34	365.82
192.573	368.85
192.806	371.25
193.039	373.87
193.272	375.85
193.505	377
193.738	379.27
193.971	381.38
194.204	383.42
194.437	385.64
194.67	387.02
194.903	387.76
195.136	388.15
195.369	389.36
195.602	390.85
195.835	391.55
196.068	395.4
196.301	396.49
196.533	398.64
196.766	400.71
196.999	403
197.232	406.04
197.465	407.87
197.698	409.4
197.93	412.13
198.163	414.02
198.396	417.13
198.629	417.56
198.861	420.07
199.094	421.22
199.327	422.78
199.559	424.25
199.792	425.2
200.025	427.11
200.257	429.75
200.49	430.87
200.723	433.38
200.955	435.78
201.188	438.71
201.42	441.65
201.653	444.93
201.886	447.42
202.118	450.05
202.351	453.24
202.583	456.76
202.816	458.56
203.048	460.33
203.281	461.71
203.513	462.71
203.745	465.2
203.978	466.13
204.21	467.33
204.443	468.36
204.675	469.4
204.907	471.16
205.14	472.35
205.372	475.02
205.605	478.13
205.837	481.67
206.069	484.64
206.302	486.35
206.534	488.24
206.766	490.45
206.998	493.45
207.231	496.13
207.463	498.73
207.695	501.42
207.927	503.71
208.159	506.22
208.392	507.78
208.624	509.09
208.856	512.89
209.088	515.45
209.32	517.98
209.552	519.45
209.784	521.91
210.017	522.91
210.249	525.31
210.481	526.93
210.713	529.58
210.945	531.82
211.177	534.75
211.409	535.62
211.641	538.64
211.873	539.69
212.105	543.09
212.337	544.64
212.569	546.87
212.801	548.65
213.033	549.93
213.264	550.89
213.496	552.55
213.728	553.36
213.96	556.33
214.192	557.6
214.424	560.69
214.656	561.45
214.887	563.76
215.119	566.53
215.351	567.62
215.583	569.65
215.815	572.11
216.046	574.04
216.278	576.87
216.51	577.31
216.741	578.45
216.973	579.8
217.205	582.76
217.436	584.18
217.668	585.58
217.9	587.6
218.131	588.85
218.363	589.85
218.595	591.09
218.826	592.75
219.058	593.82
219.289	595.62
219.521	596.64
219.752	597.47
219.984	598.73
220.215	598.15
220.447	599.22
220.678	600.91
220.91	601.82
221.141	601.18
221.373	601.82
221.604	602.09
221.836	603.13
222.067	604.2
222.298	604.36
222.53	604.35
222.761	606.25
222.993	607.25
223.224	608.24
223.455	608.95
223.686	611.16
223.918	611.89
224.149	613.85
224.38	614.15
224.612	614.71
224.843	616.91
225.074	618.16
225.305	619.02
225.536	618.95
225.768	618.29
225.999	619.02
226.23	619.67
226.461	620
226.692	620.29
226.923	622.29
227.155	624.53
227.386	622.95
227.617	623.13
227.848	623.4
228.079	624.96
228.31	624.75
228.541	624.98
228.772	625
229.003	625.18
229.234	624.65
229.465	622.65
229.696	621.47
229.927	622.71
230.158	622.93
230.389	621.98
230.62	620.8
230.85	621.67
231.081	621.36
231.312	621.29
231.543	622.16
231.774	622.53
232.005	623.98
232.236	623.84
232.466	622.96
232.697	622.89
232.928	623.07
233.159	623.89
233.389	623.78
233.62	623.16
233.851	623.33
234.082	623.93
234.312	623.84
234.543	622.24
234.774	621.67
235.004	621.02
235.235	621.64
235.466	623.33
235.696	621.6
235.927	621.91
236.157	622.56
236.388	622.87
236.618	620.89
236.849	621.31
237.08	621.71
237.31	621.73
237.541	622.96
237.771	620.98
238.002	620.71
238.232	620.27
238.463	620
238.693	619.8
238.923	619.71
239.154	620.4
239.384	620.24
239.615	620.58
239.845	619.84
240.075	619.62
240.306	621.2
240.536	619.75
240.766	620.53
240.997	619.38
241.227	619.45
241.457	617.78
241.687	616.71
241.918	616.4
242.148	614.6
242.378	614.91
242.608	613.29
242.839	613.56
243.069	612.93
243.299	611.73
243.529	612.84
243.759	612.47
243.989	611.58
244.22	611.05
244.45	609.11
244.68	610.16
244.91	609.33
245.14	609.65
245.37	607.67
245.6	607.33
245.83	607.22
246.06	605.31
246.29	604.44
246.52	604.04
246.75	603.47
246.98	604.84
247.21	604.13
247.44	603.93
247.67	603.71
247.9	603.07
248.13	603.13
248.359	603.33
248.589	604.07
248.819	603.8
249.049	604.24
249.279	604.31
249.509	602.07
249.738	600.55
249.968	598.44
250.198	597.47
250.428	597.73
250.657	595.4
250.887	594.82
251.117	593.4
251.347	591.53
251.576	590.6
251.806	589.84
252.036	589.8
252.265	588.87
252.495	589.93
252.725	589.15
252.954	587.65
253.184	588.38
253.413	587.71
253.643	587.85
253.873	588.13
254.102	588.58
254.332	587.71
254.561	587.47
254.791	588.25
255.02	588.15
255.25	587.27
255.479	588.53
255.708	588.22
255.938	586.45
256.167	585.36
256.397	583.6
256.626	581.55
256.856	580.58
257.085	580.15
257.314	579.33
257.544	577.98
257.773	578.87
258.002	577.11
258.232	576
258.461	576.75
258.69	575.35
258.919	575.53
259.149	575.15
259.378	575.07
259.607	573.95
259.836	573.73
260.065	572.64
260.295	571.67
260.524	570.85
260.753	570.24
260.982	567.56
261.211	567.29
261.44	567.4
261.669	567.53
261.899	565.78
262.128	565.89
262.357	563.89
262.586	564.15
262.815	562.89
263.044	562.31
263.273	564.4
263.502	564.87
263.731	563.6
263.96	561.6
264.189	560.36
264.418	559.75
264.646	558.42
264.875	558.4
265.104	557.58
265.333	557.16
265.562	555.71
265.791	552.84
266.02	552.49
266.249	552.4
266.477	551.49
266.706	548.71
266.935	547.93
267.164	546.22
267.393	545.65
267.621	544.49
267.85	543
268.079	542.67
268.307	541.02
268.536	539.95
268.765	539.73
268.993	539.65
269.222	540.89
269.451	540.33
269.679	540.87
269.908	541.24
270.137	540.64
270.365	540.67
270.594	541.35
270.822	542.02
271.051	541.51
271.279	541.35
271.508	542.93
271.736	543.55
271.965	543.76
272.193	543.98
272.422	543.47
272.65	543.96
272.879	544.18
273.107	544.05
273.336	544.04
273.564	544.73
273.792	543.75
274.021	540.82
274.249	539.33
274.477	538.55
274.706	536.11
274.934	534.18
275.162	532.25
275.391	531.53
275.619	530.44
275.847	528.24
276.075	526.16
276.304	525.64
276.532	525.22
276.76	524.13
276.988	522.78
277.216	522.75
277.445	522.55
277.673	521.98
277.901	520.35
278.129	519.11
278.357	517.85
278.585	517.47
278.813	516.85
279.041	516.85
279.269	516.82
279.497	518.51
279.725	517.6
279.954	516.93
280.182	516.05
280.41	516.18
280.637	515.73
280.865	516.16
281.093	516.24
281.321	515.02
281.549	513.67
281.777	512.62
282.005	510.73
282.233	510.65
282.461	509.76
282.689	510.07
282.916	509.31
283.144	509.18
283.372	507.89
283.6	507.44
283.828	506.95
284.055	506.29
284.283	505.89
284.511	505.27
284.739	505.69
284.966	505.93
285.194	505.44
285.422	505.13
285.649	504.22
285.877	504
286.105	503.02
286.332	503.73
286.56	503.65
286.788	504.15
287.015	503.25
287.243	501.62
287.47	500.98
287.698	500.38
287.925	499.07
288.153	497.67
288.381	496.67
288.608	497
288.836	496.6
289.063	496.62
289.29	496.16
289.518	495.69
289.745	495.56
289.973	494.36
290.2	494.8
290.428	493.07
290.655	492.95
290.882	492.98
291.11	492.09
291.337	489.95
291.564	489.4
291.792	488.58
292.019	488.47
292.246	486.38
292.473	486.33
292.701	484.53
292.928	485.4
293.155	484.55
293.382	483.87
293.61	482.93
293.837	482.27
294.064	481.67
294.291	480.4
294.518	480.11
294.745	480.78
294.972	479.84
295.2	479.33
295.427	478.09
295.654	478.42
295.881	477.71
296.108	477.02
296.335	477.02
296.562	477.69
296.789	477.16
297.016	475.8
297.243	474.8
297.47	474.93
297.697	474.15
297.924	473.76
298.151	472.18
298.378	472.02
298.604	471.67
298.831	471.16
299.058	469.38
299.285	469.07
299.512	468.49
299.739	469.02
299.966	469.05
300.192	469.22
300.419	469.47
300.646	469.25
300.873	469
301.099	467.16
301.326	467.56
301.553	466.56
301.78	467.33
302.006	468.05
302.233	467.65
302.46	465.93
302.686	465.24
302.913	464.13
303.14	463.53
303.366	462.84
303.593	463.87
303.819	463.05
304.046	462.33
304.272	460.96
304.499	458.29
304.725	457.47
304.952	458.02
305.179	457.78
305.405	457.55
305.631	458.04
305.858	457.78
306.084	457.8
306.311	457.45
306.537	457.65
306.764	456.69
306.99	458.04
307.216	458.02
307.443	456.35
307.669	455.96
307.895	455.67
308.122	454.31
308.348	453.75
308.574	452.64
308.801	453
309.027	453.31
309.253	454.35
309.479	455.35
309.706	455.36
309.932	455.84
310.158	455.73
310.384	456.47
310.61	457.82
310.837	458.98
311.063	458.42
311.289	457.71
311.515	457.15
311.741	456.36
311.967	455.62
312.193	454.96
312.419	455.18
312.645	454.36
312.871	454.56
313.097	454.4
313.323	453.36
313.549	454.71
313.775	455.42
314.001	455.36
314.227	455.89
314.453	456.64
314.679	457.62
314.905	457.76
315.131	458.82
315.357	458.04
315.583	457.07
315.809	457.85
316.034	458.65
316.26	458.98
316.486	458.62
316.712	459.13
316.938	458.4
317.163	458.58
317.389	458.89
317.615	459.07
317.841	460.53
318.066	461.71
318.292	462.27
318.518	461.78
318.743	461.76
318.969	463.82
319.195	465.58
319.42	465.96
319.646	467.16
319.872	468.6
320.097	469.24
320.323	469.49
320.548	470.62
320.774	472.73
320.999	474.29
321.225	474.42
321.45	476.25
321.676	475.4
321.901	477.25
322.127	476.73
322.352	477.24
322.578	479.4
322.803	480.76
323.029	483.09
323.254	483.8
323.479	484.84
323.705	487.29
323.93	488.47
324.155	491.13
324.381	492.09
324.606	494.89
324.831	497.49
325.057	499.98
325.282	502.07
325.507	503.15
325.732	504.96
325.958	508.25
326.183	511.47
326.408	512.4
326.633	514.89
326.858	517.47
327.084	519.25
327.309	521.47
327.534	523.76
327.759	526.84
327.984	529.91
328.209	532.38
328.434	534.44
328.659	536.96
328.884	540.56
329.109	542.31
329.334	546.4
329.559	551.02
329.784	555.29
330.009	557.87
330.234	561.16
330.459	564.15
330.684	568.24
330.909	572.13
331.134	575.49
331.359	579.6
331.584	584.55
331.809	588.56
332.034	592.15
332.259	596.29
332.483	600.76
332.708	605.36
332.933	610.89
333.158	614.29
333.383	619.36
333.607	624.05
333.832	629.29
334.057	635.24
334.282	640.55
334.506	644.85
334.731	649.87
334.956	656.38
335.18	660.4
335.405	665.89
335.63	673.05
335.854	677.16
336.079	683.55
336.303	688.38
336.528	693.42
336.753	699.04
336.977	706.13
337.202	712.13
337.426	717.4
337.651	725.07
337.875	730.47
338.1	736.38
338.324	745.18
338.549	751.05
338.773	757.71
338.997	764.71
339.222	770.64
339.446	776.53
339.671	783.38
339.895	790.8
340.119	797.38
340.344	805.25
340.568	813.15
340.792	819.58
341.017	826.62
341.241	835.69
341.465	843.38
341.689	852.51
341.914	860.64
342.138	869.49
342.362	876.78
342.586	886.04
342.811	895.2
343.035	904.4
343.259	912.31
343.483	921.87
343.707	930.22
343.931	939.47
344.155	948.42
344.38	959.35
344.604	967.22
344.828	977.96
345.052	985.11
345.276	994.25
345.5	1001.8
345.724	1011.91
345.948	1022.67
346.172	1033.02
346.396	1040.42
346.62	1052.24
346.844	1061.24
347.068	1072.04
347.292	1081.87
347.515	1092.73
347.739	1104.24
347.963	1114.95
348.187	1125.45
348.411	1134.04
348.635	1142.07
348.859	1153.78
349.082	1162.67
349.306	1172.98
349.53	1184.62
349.754	1196.25
349.977	1206.47
350.201	1214.69
350.425	1226.56
350.649	1234.98
350.872	1246.55
351.096	1258.4
351.32	1270.2
351.543	1281.29
351.767	1291.73
351.99	1301.6
352.214	1311.49
352.438	1325.13
352.661	1336.6
352.885	1346.25
353.108	1359.8
353.332	1371.76
353.555	1384.47
353.779	1396.6
354.002	1407.91
354.226	1421.24
354.449	1434.84
354.673	1448
354.896	1459.05
355.12	1471.07
355.343	1483.73
355.566	1495.73
355.79	1506
356.013	1518.84
356.237	1530.16
356.46	1540.91
356.683	1552.51
356.907	1562.33
357.13	1575.55
357.353	1587.6
357.576	1599.87
357.8	1611.96
358.023	1625.51
358.246	1637.76
358.469	1649
358.693	1662.29
358.916	1676.67
359.139	1688.96
359.362	1701.98
359.585	1712.78
359.808	1726.76
360.031	1739.22
360.255	1755.62
360.478	1767.49
360.701	1783.11
360.924	1797.67
361.147	1810.96
361.37	1825.38
361.593	1838.87
361.816	1852.27
362.039	1867.09
362.262	1880.89
362.485	1895.31
362.708	1905.95
362.931	1920.31
363.154	1933.6
363.377	1946.25
363.599	1960.96
363.822	1974.6
364.045	1989.33
364.268	2004
364.491	2016.38
364.714	2027.51
364.936	2042.6
365.159	2057.71
365.382	2071.24
365.605	2084.89
365.828	2102.55
366.05	2115
366.273	2130.02
366.496	2142.02
366.718	2157.71
366.941	2172.84
367.164	2190.25
367.386	2205.04
367.609	2221.73
367.832	2238.98
368.054	2258.42
368.277	2270.73
368.5	2287.09
368.722	2302.11
368.945	2320.98
369.167	2337.75
369.39	2353.05
369.612	2368.89
369.835	2387.95
370.057	2401.8
370.28	2417.95
370.502	2433.36
370.725	2451.27
370.947	2469.65
371.169	2485.87
371.392	2503.2
371.614	2518.69
371.837	2536.04
372.059	2554.91
372.281	2569.18
372.504	2585.29
372.726	2602.25
372.948	2616.84
373.171	2632.87
373.393	2646.84
373.615	2663.62
373.837	2679.09
374.06	2697.93
374.282	2716.62
374.504	2733.47
374.726	2750.93
374.948	2771.47
375.17	2786.78
375.393	2806.6
375.615	2825.56
375.837	2849.35
376.059	2869.36
376.281	2892.75
376.503	2911.2
376.725	2930.33
376.947	2948.78
377.169	2972.29
377.391	2991.69
377.613	3013.62
377.835	3032.73
378.057	3054.36
378.279	3071.85
378.501	3094.24
378.723	3114.05
378.945	3136.16
379.167	3161.64
379.389	3185.47
379.611	3204.22
379.833	3225.84
380.054	3248.38
380.276	3273.96
380.498	3294.69
380.72	3318.45
380.942	3341.25
381.163	3362.93
381.385	3384.25
381.607	3405.47
381.829	3428.07
382.05	3453.25
382.272	3479.76
382.494	3505.85
382.716	3531.33
382.937	3559.93
383.159	3587.15
383.381	3613.67
383.602	3640.45
383.824	3666.53
384.045	3692.29
384.267	3720.45
384.488	3747.95
384.71	3774.56
384.932	3800.33
385.153	3822.35
385.375	3848.82
385.596	3877.24
385.818	3903.96
386.039	3931.07
386.261	3958.58
386.482	3984.18
386.703	4009.62
386.925	4036.84
387.146	4064.2
387.368	4091.18
387.589	4121.09
387.81	4147.38
388.032	4175.02
388.253	4200.42
388.474	4229.76
388.696	4258.62
388.917	4289.42
389.138	4318.67
389.359	4349.71
389.581	4377.93
389.802	4409.36
390.023	4442.38
390.244	4470.16
390.465	4499.47
390.687	4528.67
390.908	4558.96
391.129	4589.31
391.35	4619.75
391.571	4653.47
391.792	4679.6
392.013	4708.75
392.234	4739.44
392.455	4765.47
392.677	4803.09
392.898	4832.89
393.119	4865.85
393.34	4896.84
393.561	4930.98
393.782	4962.53
394.003	4992.33
394.223	5026.07
394.444	5061.44
394.665	5093.82
394.886	5128.85
395.107	5156.71
395.328	5190.02
395.549	5226.98
395.77	5257.27
395.99	5290.31
396.211	5323.4
396.432	5358.62
396.653	5387.29
396.874	5423.29
397.094	5456.71
397.315	5488.56
397.536	5523.2
397.757	5555.64
397.977	5588.87
398.198	5626.2
398.419	5660.47
398.639	5694.22
398.86	5727.36
399.081	5766.53
399.301	5798.25
399.522	5832.05
399.742	5865.76
399.963	5901.04
400.184	5934.49
400.404	5968.29
400.625	5999.76
400.845	6030.75
401.066	6065.84
401.286	6097.22
401.507	6132.53
401.727	6168.11
401.948	6201.96
402.168	6242
402.388	6278.33
402.609	6315.18
402.829	6346.71
403.05	6383.73
403.27	6419.76
403.49	6454.38
403.711	6488.42
403.931	6519.11
404.151	6548.27
404.372	6581.73
404.592	6610.51
404.812	6643.36
405.032	6676.82
405.253	6707.47
405.473	6741.8
405.693	6777.56
405.913	6813.69
406.133	6849.27
406.353	6888.44
406.574	6924.25
406.794	6958.05
407.014	6994.82
407.234	7031.15
407.454	7064.04
407.674	7105.55
407.894	7138.02
408.114	7171.11
408.334	7204.69
408.554	7239.76
408.774	7273.18
408.994	7313.45
409.214	7354.09
409.434	7393.09
409.654	7429.13
409.874	7469.4
410.094	7506.07
410.314	7543.33
410.534	7579.24
410.754	7618.56
410.974	7656.75
411.193	7694.49
411.413	7729.98
411.633	7764.16
411.853	7800.69
412.073	7836.15
412.292	7871.2
412.512	7909.93
412.732	7950.2
412.952	7990.65
413.171	8029.64
413.391	8068.89
413.611	8114
413.831	8154.13
414.05	8201.73
414.27	8240.96
414.489	8284.84
414.709	8332.58
414.929	8369.89
415.148	8412.16
415.368	8456.71
415.587	8499
415.807	8544.67
416.026	8585.38
416.246	8628.45
416.465	8673.82
416.685	8719.82
416.904	8761.8
417.124	8804.27
417.343	8856.69
417.563	8902.87
417.782	8949.51
418.002	8991.05
418.221	9038.6
418.44	9084.98
418.66	9131.27
418.879	9170.09
419.098	9211.96
419.318	9256.16
419.537	9299.29
419.756	9338.35
419.976	9379.98
420.195	9416.82
420.414	9460.29
420.633	9502.78
420.853	9548.47
421.072	9591.22
421.291	9633.69
421.51	9683
421.729	9724.25
421.948	9767.76
422.168	9809.82
422.387	9852.33
422.606	9903.8
422.825	9952.64
423.044	9995.89
423.263	10032.02
423.482	10073.93
423.701	10119.09
423.92	10159.91
424.139	10206.62
424.358	10254.07
424.577	10303.44
424.796	10350.98
425.015	10395.15
425.234	10433.65
425.453	10478.4
425.672	10525.71
425.891	10578.29
426.11	10623.47
426.328	10668.24
426.547	10716.85
426.766	10761.07
426.985	10804.65
427.204	10854.78
427.422	10903.78
427.641	10953.91
427.86	11001.16
428.079	11048.78
428.297	11098.89
428.516	11145.62
428.735	11196.44
428.954	11248.96
429.172	11292.16
429.391	11341.65
429.61	11387.49
429.828	11430.53
430.047	11482.67
430.265	11529.58
430.484	11580.62
430.703	11624.71
430.921	11672.75
431.14	11715.49
431.358	11754.95
431.577	11811.15
431.795	11856.29
432.014	11902.25
432.232	11955.47
432.451	11997.8
432.669	12046.35
432.887	12091.24
433.106	12134.33
433.324	12185.87
433.543	12236.62
433.761	12289.35
433.979	12335.24
434.198	12380.22
434.416	12424.25
434.634	12466.13
434.853	12515.87
435.071	12561.29
435.289	12609.11
435.507	12659.67
435.726	12697.85
435.944	12745.15
436.162	12790.87
436.38	12835.38
436.598	12883.02
436.817	12933.29
437.035	12978.35
437.253	13021.82
437.471	13069.69
437.689	13120.71
437.907	13166
438.125	13219.78
438.343	13264.89
438.561	13312.04
438.78	13359.69
438.998	13411.38
439.216	13455.02
439.434	13501.53
439.652	13552.64
439.869	13601.04
440.087	13648.62
440.305	13697.49
440.523	13743.84
440.741	13795.49
440.959	13841.53
441.177	13888.29
441.395	13930.11
441.613	13983.95
441.831	14038.6
442.048	14086.31
442.266	14132.87
442.484	14183.91
442.702	14231.75
442.919	14283.73
443.137	14335.62
443.355	14389.75
443.573	14435.85
443.79	14497.36
444.008	14541.78
444.226	14584.13
444.443	14631.45
444.661	14678.44
444.879	14716.33
445.096	14765.98
445.314	14815
445.532	14853.31
445.749	14894.38
445.967	14948.25
446.184	14986.75
446.402	15030.33
446.619	15079.93
446.837	15130.89
447.054	15182.18
447.272	15235.44
447.489	15283.04
447.707	15327.75
447.924	15375.67
448.141	15430.05
448.359	15479.24
448.576	15531.75
448.794	15587.38
449.011	15636.35
449.228	15681.64
449.446	15726.24
449.663	15776.65
449.88	15825.91
450.098	15875.15
450.315	15927.4
450.532	15972
450.749	16014.09
450.967	16055.85
451.184	16102.38
451.401	16151.29
451.618	16199.96
451.835	16255.13
452.052	16298.22
452.27	16338.02
452.487	16386.47
452.704	16436.42
452.921	16484.04
453.138	16531.76
453.355	16585.82
453.572	16636.73
453.789	16683.2
454.006	16733.62
454.223	16778.65
454.44	16824.02
454.657	16874.16
454.874	16920.42
455.091	16968.35
455.308	17017.25
455.525	17066.09
455.742	17111.85
455.959	17159.09
456.176	17208.96
456.393	17249.11
456.609	17289.95
456.826	17341.22
457.043	17390.95
457.26	17436.11
457.477	17472.98
457.693	17516.49
457.91	17559.56
458.127	17603.64
458.344	17645.53
458.56	17682.47
458.777	17726.31
458.994	17768.69
459.21	17805.71
459.427	17838.4
459.644	17873
459.86	17911.84
460.077	17943.84
460.294	17976.62
460.51	18009.18
460.727	18047.53
460.943	18088.98
461.16	18122.49
461.376	18160.29
461.593	18199.53
461.809	18237.47
462.026	18279.55
462.242	18323.58
462.459	18367.49
462.675	18408.33
462.892	18449.65
463.108	18488.38
463.324	18526.58
463.541	18573.8
463.757	18610.55
463.974	18650.8
464.19	18700.33
464.406	18746.8
464.623	18795.76
464.839	18840.35
465.055	18890.71
465.271	18935.29
465.488	18977.62
465.704	19027.51
465.92	19072.47
466.136	19128.16
466.353	19177.4
466.569	19229.85
466.785	19273.04
467.001	19321
467.217	19372.82
467.433	19430.65
467.649	19491.35
467.865	19547.15
468.082	19599.91
468.298	19657.82
468.514	19718.56
468.73	19784.15
468.946	19846.2
469.162	19918.67
469.378	19979.09
469.594	20044.8
469.81	20101.51
470.026	20167.84
470.242	20233
470.457	20298.25
470.673	20371.51
470.889	20438.58
471.105	20502.89
471.321	20568.2
471.537	20630.93
471.753	20697.62
471.968	20765.95
472.184	20835.36
472.4	20904.02
472.616	20980.85
472.832	21052.27
473.047	21119.44
473.263	21186.22
473.479	21260.4
473.694	21345.07
473.91	21426.82
474.126	21506.24
474.341	21586.84
474.557	21665.91
474.773	21733.51
474.988	21803.45
475.204	21882.89
475.42	21957.89
475.635	22030.78
475.851	22102.78
476.066	22154.4
476.282	22218.18
476.497	22277.87
476.713	22341.84
476.928	22408.13
477.144	22483.38
477.359	22548.27
477.575	22611.22
477.79	22673.78
478.005	22739.67
478.221	22799.15
478.436	22866.51
478.651	22923.75
478.867	22993.4
479.082	23054.31
479.297	23111.4
479.513	23171.4
479.728	23225.47
479.943	23273.95
480.159	23330.75
480.374	23382.05
480.589	23440.33
480.804	23491.49
481.019	23552.24
481.235	23596.04
481.45	23639.05
481.665	23687.73
481.88	23734.35
482.095	23787.09
482.31	23835.78
482.525	23882.76
482.741	23935.8
482.956	23979.76
483.171	24025.64
483.386	24065.6
483.601	24112.65
483.816	24157.09
484.031	24203.93
484.246	24240.02
484.461	24283.87
484.676	24336.96
484.891	24375.09
485.105	24415.27
485.32	24457.87
485.535	24505.07
485.75	24545.76
485.965	24586.56
486.18	24634.98
486.395	24671.87
486.609	24719.13
486.824	24757.53
487.039	24798.22
487.254	24837.33
487.469	24876.89
487.683	24918.02
487.898	24950.13
488.113	24988.27
488.327	25032.05
488.542	25069.35
488.757	25118.33
488.972	25152.27
489.186	25189.47
489.401	25220.89
489.615	25263.16
489.83	25298.29
490.045	25325.84
490.259	25367.91
490.474	25402.62
490.688	25428.38
490.903	25463.22
491.117	25485.22
491.332	25510.73
491.546	25545.55
491.761	25580.87
491.975	25611.82
492.19	25648.91
492.404	25686.18
492.618	25717.65
492.833	25746.55
493.047	25786.76
493.262	25814.25
493.476	25846.13
493.69	25881.22
493.905	25909.64
494.119	25934.58
494.333	25959.25
494.547	25974.02
494.762	25999.13
494.976	26020.78
495.19	26044.24
495.404	26072.69
495.619	26096.87
495.833	26131.76
496.047	26158.91
496.261	26177.04
496.475	26204.15
496.689	26216.49
496.903	26235.27
497.117	26236.33
497.332	26239.04
497.546	26234.78
497.76	26218.13
497.974	26210.22
498.188	26188.09
498.402	26175.91
498.616	26165.85
498.83	26150.53
499.044	26143.38
499.258	26137.15
499.472	26138.95
499.685	26145.95
499.899	26154.13
500.113	26160.91
500.327	26169.11
500.541	26188.29
500.755	26202.69
500.969	26220.55
501.183	26240.33
501.396	26260.71
501.61	26272.29
501.824	26292.64
502.038	26308.55
502.251	26329.25
502.465	26356.27
502.679	26373.62
502.892	26384.96
503.106	26404.13
503.32	26425.95
503.533	26436.56
503.747	26461.56
503.961	26486.91
504.174	26503.38
504.388	26533.38
504.602	26564.87
504.815	26596.07
505.029	26632.78
505.242	26684.42
505.456	26729.96
505.669	26774.36
505.883	26832.93
506.096	26879.2
506.31	26940.07
506.523	26996.69
506.736	27045.89
506.95	27102.15
507.163	27156.67
507.377	27211.98
507.59	27268.31
507.803	27321.87
508.017	27387.93
508.23	27443.84
508.443	27508.78
508.657	27573.49
508.87	27638.09
509.083	27709.16
509.296	27778.56
509.51	27853.25
509.723	27932
509.936	28003.67
510.149	28084.89
510.363	28155.45
510.576	28238.89
510.789	28330.98
511.002	28422.27
511.215	28521.25
511.428	28622.69
511.641	28723.04
511.854	28826.98
512.067	28923.89
512.28	29031.49
512.493	29130.36
512.707	29231.89
512.92	29333.31
513.132	29436.13
513.345	29536.02
513.558	29643.53
513.771	29747.84
513.984	29853.38
514.197	29958.58
514.41	30071.2
514.623	30170.73
514.836	30277.96
515.049	30387.76
515.262	30494.24
515.474	30590.78
515.687	30696.16
515.9	30797.56
516.113	30891.75
516.325	30989.51
516.538	31072.76
516.751	31163.55
516.964	31248.55
517.176	31333.07
517.389	31431.02
517.602	31510.45
517.814	31596.44
518.027	31673.87
518.24	31749.84
518.452	31826.82
518.665	31897.75
518.877	31977.05
519.09	32050.42
519.303	32129.33
519.515	32203.44
519.728	32260.64
519.94	32332.25
520.153	32397.18
520.365	32466.31
520.578	32525.64
520.79	32592.65
521.002	32658.78
521.215	32730.13
521.427	32784.31
521.64	32834.58
521.852	32885.67
522.064	32937.53
522.277	32989
522.489	33043.13
522.701	33085.95
522.914	33144.15
523.126	33186.73
523.338	33227.31
523.551	33266.45
523.763	33314.98
523.975	33363.02
524.187	33421.55
524.399	33475.31
524.612	33520.25
524.824	33559.53
525.036	33609.31
525.248	33654.05
525.46	33695.56
525.672	33739.02
525.884	33783.56
526.096	33820.47
526.308	33855.55
526.521	33890.45
526.733	33919.84
526.945	33952.13
527.157	33986.56
527.369	34019.36
527.581	34042.87
527.793	34067.4
528.004	34097.75
528.216	34119.49
528.428	34158.47
528.64	34189.8
528.852	34212.44
529.064	34236.27
529.276	34268.29
529.488	34294.22
529.699	34310.27
529.911	34342.04
530.123	34378.33
530.335	34407.31
530.547	34435.71
530.758	34451.45
530.97	34475.53
531.182	34494.27
531.393	34526.71
531.605	34556.07
531.817	34585.62
532.029	34617.85
532.24	34638.71
532.452	34654.8
532.663	34677.09
532.875	34691.93
533.087	34715.36
533.298	34734.87
533.51	34766.85
533.721	34790.95
533.933	34810.45
534.144	34830.35
534.356	34849.55
534.567	34873.22
534.779	34891.42
534.99	34907.53
535.202	34935.87
535.413	34959.93
535.624	34984.6
535.836	34995.84
536.047	35008.65
536.259	35023.05
536.47	35030.89
536.681	35044.89
536.893	35047.71
537.104	35063.75
537.315	35078.8
537.526	35092
537.738	35110.93
537.949	35125
538.16	35140.62
538.371	35156.95
538.582	35183.35
538.794	35200.64
539.005	35220.18
539.216	35239.07
539.427	35256.91
539.638	35272.29
539.849	35280.13
540.06	35287.02
540.272	35299.67
540.483	35312.64
540.694	35328.49
540.905	35329.35
541.116	35350.09
541.327	35363.96
541.538	35375.73
541.749	35388.51
541.96	35391.71
542.17	35402.44
542.381	35416.25
542.592	35428.47
542.803	35437.73
543.014	35442.45
543.225	35444.24
543.436	35449.62
543.647	35451.53
543.857	35460.24
544.068	35464.82
544.279	35477.93
544.49	35488.95
544.701	35492.07
544.911	35502.36
545.122	35513.44
545.333	35526.4
545.543	35541.58
545.754	35548.91
545.965	35553.98
546.175	35563.95
546.386	35568.09
546.597	35576.85
546.807	35581.36
547.018	35589.82
547.229	35593.65
547.439	35597.76
547.65	35599.18
547.86	35606.18
548.071	35612.98
548.281	35617.51
548.492	35625.78
548.702	35631.75
548.913	35646.33
549.123	35652.8
549.333	35663.98
549.544	35665.42
549.754	35668.56
549.965	35669.78
550.175	35670.13
550.385	35682.29
550.596	35701.13
550.806	35713.69
551.016	35729.25
551.227	35731.22
551.437	35746.98
551.647	35743.84
551.857	35761.89
552.068	35774.49
552.278	35787.65
552.488	35806.29
552.698	35808
552.908	35813.11
553.119	35812.65
553.329	35812.55
553.539	35810
553.749	35800
553.959	35801.38
554.169	35790.84
554.379	35786.33
554.589	35775.36
554.799	35766.33
555.009	35757.16
555.219	35743.15
555.429	35734.36
555.639	35733.2
555.849	35738
556.059	35737.47
556.269	35734.31
556.479	35725
556.689	35725.65
556.899	35727.25
557.109	35722.69
557.319	35727.31
557.528	35727.75
557.738	35729.25
557.948	35721.18
558.158	35703.36
558.368	35698.65
558.577	35683.16
558.787	35681.2
558.997	35673.85
559.207	35672.05
559.416	35664.51
559.626	35651.49
559.836	35644.78
560.045	35638.27
560.255	35638.29
560.465	35640.89
560.674	35642.95
560.884	35653.62
561.093	35651.58
561.303	35639.05
561.512	35625.15
561.722	35616.91
561.932	35613.53
562.141	35605.89
562.351	35601.42
562.56	35592.09
562.769	35590.31
562.979	35579.13
563.188	35564.84
563.398	35561.31
563.607	35562.49
563.817	35566.71
564.026	35559.47
564.235	35555.96
564.445	35552.07
564.654	35543.64
564.863	35529.36
565.073	35517.51
565.282	35498.13
565.491	35490.67
565.7	35466.53
565.91	35441.18
566.119	35419.93
566.328	35401.44
566.537	35381.95
566.746	35361
566.956	35343.85
567.165	35339.24
567.374	35317.65
567.583	35318.69
567.792	35298.42
568.001	35286.71
568.21	35280
568.419	35259.22
568.628	35237.96
568.837	35213.64
569.046	35187.67
569.255	35151.42
569.464	35116.47
569.673	35082.84
569.882	35050.82
570.091	35022.25
570.3	35008.04
570.509	34984.33
570.718	34965.55
570.927	34957.24
571.135	34946.42
571.344	34935.76
571.553	34930.8
571.762	34918.33
571.971	34918.84
572.18	34903.05
572.388	34885.89
572.597	34858.65
572.806	34832.18
573.014	34821.27
573.223	34788.69
573.432	34761
573.641	34744.02
573.849	34716.93
574.058	34709.98
574.266	34685.44
574.475	34659.64
574.684	34641.98
574.892	34625.89
575.101	34613.91
575.309	34592.76
575.518	34577.44
575.726	34562.11
575.935	34541.38
576.143	34526.09
576.352	34488.51
576.56	34466.82
576.769	34457.78
576.977	34449.87
577.186	34439.65
577.394	34419.91
577.602	34386.56
577.811	34371.75
578.019	34347.25
578.228	34319.42
578.436	34291.27
578.644	34268.58
578.852	34241.58
579.061	34210
579.269	34169.76
579.477	34125.71
579.685	34092.95
579.894	34075.82
580.102	34044.85
580.31	34023.27
580.518	34003.07
580.726	33981.65
580.935	33964.22
581.143	33948.22
581.351	33927.22
581.559	33911.09
581.767	33894.31
581.975	33884.53
582.183	33850.75
582.391	33832.98
582.599	33806.78
582.807	33781.38
583.015	33760.05
583.223	33731.13
583.431	33704.27
583.639	33677.76
583.847	33655.75
584.055	33633.53
584.263	33603.09
584.471	33583.25
584.678	33560.36
584.886	33532.58
585.094	33508.22
585.302	33484.69
585.51	33463.55
585.718	33439.78
585.925	33415.96
586.133	33394.76
586.341	33374.24
586.549	33357.38
586.756	33343.31
586.964	33315.95
587.172	33287.95
587.379	33254.42
587.587	33235.24
587.795	33204.73
588.002	33171.73
588.21	33140.56
588.417	33109.24
588.625	33076.27
588.833	33041.16
589.04	33009.09
589.248	32987.56
589.455	32971.49
589.663	32957.69
589.87	32925.76
590.078	32896.91
590.285	32880.13
590.492	32861.44
590.7	32838.09
590.907	32816.78
591.115	32792.44
591.322	32762.31
591.529	32737.38
591.737	32707.22
591.944	32672.47
592.151	32639.45
592.359	32612.69
592.566	32571.93
592.773	32535.11
592.981	32495.31
593.188	32454.82
593.395	32409.64
593.602	32371.07
593.809	32331.53
594.017	32307.04
594.224	32282.04
594.431	32251.47
594.638	32225.8
594.845	32200.45
595.052	32172.4
595.259	32143.62
595.466	32124.18
595.673	32109.36
595.88	32093.49
596.088	32068.55
596.295	32026.85
596.502	31999.93
596.709	31974.87
596.915	31942.22
597.122	31911.47
597.329	31887.96
597.536	31867.18
597.743	31838.76
597.95	31816.53
598.157	31777.51
598.364	31735.95
598.571	31702.31
598.777	31642.65
598.984	31583.49
599.191	31532.55
599.398	31485.62
599.605	31430.45
599.811	31363.8
600.018	31304.4
600.225	31235.82
600.431	31181.89
600.638	31142.38
600.845	31111.62
601.052	31091.53
601.258	31065.53
601.465	31029.15
601.671	30967.65
601.878	30898.09
602.085	30825.69
602.291	30721.8
602.498	30598.36
602.704	30464.62
602.911	30301.73
603.117	30108.65
603.324	29894.33
603.53	29679.33
603.737	29449.44
603.943	29216.82
604.15	28970.36
604.356	28718.53
604.562	28466.15
604.769	28220.53
604.975	27953.49
605.181	27689.47
605.388	27429.65
605.594	27178.91
605.8	26913.02
606.007	26640.47
606.213	26370.78
606.419	26110.2
606.625	25851.13
606.832	25595.89
607.038	25323.67
607.244	25067.69
607.45	24807.93
607.656	24542.24
607.863	24271.36
608.069	24000.4
608.275	23729.15
608.481	23469.69
608.687	23199.2
608.893	22926.35
609.099	22651.58
609.305	22391.31
609.511	22120.18
609.717	21839.65
609.923	21556.98
610.129	21271.6
610.335	20984.53
610.541	20701.42
610.747	20402.87
610.953	20108.62
611.159	19811.98
611.365	19511
611.571	19198.4
611.776	18888.29
611.982	18578.96
612.188	18276.29
612.394	17964.51
612.6	17655.07
612.806	17348.16
613.011	17041.49
613.217	16729.91
613.423	16419.22
613.628	16111.96
613.834	15816.78
614.04	15521.51
614.246	15232.6
614.451	14941.76
614.657	14661.82
614.862	14390.85
615.068	14122.31
615.274	13861.07
615.479	13604.89
615.685	13351.36
615.89	13107.18
616.096	12860.11
616.301	12613.04
616.507	12367.07
616.712	12121.67
616.918	11877.07
617.123	11626.18
617.329	11366.49
617.534	11104.09
617.74	10842.8
617.945	10585.31
618.15	10303.44
618.356	9866.96
618.561	9076.73
618.766	8118.71
618.972	7129.4
619.177	6165.05
619.382	5226.07
619.588	4316.13
619.793	3774.24
619.998	3137.91
620.203	2369.55
620.408	1445.43
620.614	540.07
