Data from test1_MAYP1115451__64__10-14-59-146.txt Node

Date: Wed Jun 12 10:14:59 MDT 2024
User: Modes Lab
Spectrometer: MAYP111545
Trigger mode: 0
Integration Time (sec): 8.000000E-3
Scans to average: 5
Electric dark correction enabled: true
Nonlinearity correction enabled: false
Boxcar width: 5
XAxis mode: Wavelengths
Number of Pixels in Spectrum: 2068
>>>>>Begin Spectral Data<<<<<
165.214	162.4
165.449	163.69
165.683	172.56
165.918	182.14
166.152	188.39
166.387	193.05
166.621	125.36
166.856	163.85
167.09	181.78
167.325	205.47
167.559	222.05
167.794	237.29
168.028	244.31
168.263	245.09
168.497	245.74
168.732	246.12
168.966	247.34
169.2	249.34
169.435	251.43
169.669	253.89
169.903	255.51
170.138	257.22
170.372	258.45
170.606	260.56
170.841	262.43
171.075	262.52
171.309	264.51
171.544	266.45
171.778	268.03
172.012	269.62
172.246	270.74
172.48	272.58
172.715	274.54
172.949	275.54
173.183	276.16
173.417	278.23
173.651	279.63
173.885	280.31
174.119	281.22
174.354	281.11
174.588	280.36
174.822	281.07
175.056	281.09
175.29	280.85
175.524	280.16
175.758	281.2
175.992	281.85
176.226	281.38
176.46	282.51
176.694	283.23
176.928	284.63
177.162	286.38
177.396	287.78
177.63	288.98
177.864	290.22
178.097	292.25
178.331	292.03
178.565	292.25
178.799	293.87
179.033	294.87
179.267	294.69
179.5	295.34
179.734	295.89
179.968	295.71
180.202	295.23
180.436	296.03
180.669	296.16
180.903	297.8
181.137	299.16
181.371	300.6
181.604	301.4
181.838	302.87
182.072	304.29
182.305	306.4
182.539	307.72
182.772	309.96
183.006	311.2
183.24	311.89
183.473	315.94
183.707	316.63
183.94	316.8
184.174	318.11
184.408	319.2
184.641	319.91
184.875	320.69
185.108	323
185.342	323.83
185.575	324.34
185.808	326.22
186.042	324.38
186.275	325.74
186.509	327.45
186.742	329.11
186.976	330
187.209	331.71
187.442	333.31
187.676	333.02
187.909	334.91
188.142	337.31
188.376	338.76
188.609	340.51
188.842	342.03
189.076	343.78
189.309	344.52
189.542	347.27
189.775	349.07
190.009	349.96
190.242	352.47
190.475	354.51
190.708	355.47
190.941	357.8
191.174	359.78
191.408	361.52
191.641	362.98
191.874	364.34
192.107	365.45
192.34	367.32
192.573	369.45
192.806	371.31
193.039	371.56
193.272	373.92
193.505	374.22
193.738	375.76
193.971	376.89
194.204	379.36
194.437	381.42
194.67	383.4
194.903	384.98
195.136	386.45
195.369	387.92
195.602	389.94
195.835	391.6
196.068	395.27
196.301	396.29
196.533	398.42
196.766	399.94
196.999	403.62
197.232	405.38
197.465	407.31
197.698	410.22
197.93	412.25
198.163	414.98
198.396	417.69
198.629	419.11
198.861	421.65
199.094	424.07
199.327	426.49
199.559	427.12
199.792	429.23
200.025	430.8
200.257	432.72
200.49	434.94
200.723	436.78
200.955	439.31
201.188	441.38
201.42	443.87
201.653	446.94
201.886	449.02
202.118	451.78
202.351	453.72
202.583	456
202.816	458.09
203.048	460.16
203.281	462.45
203.513	464.38
203.745	467.18
203.978	469.05
204.21	470.31
204.443	472.14
204.675	473.67
204.907	476.96
205.14	480.54
205.372	482.32
205.605	485.22
205.837	487.63
206.069	489.56
206.302	490.71
206.534	493.02
206.766	495.6
206.998	498.32
207.231	501.45
207.463	503.31
207.695	504.07
207.927	506.36
208.159	507.4
208.392	509.2
208.624	511.78
208.856	515.16
209.088	517.62
209.32	518.96
209.552	521.69
209.784	524.38
210.017	527.92
210.249	530.2
210.481	531.89
210.713	534.51
210.945	537.54
211.177	539.14
211.409	540.27
211.641	541.63
211.873	544.72
212.105	545.91
212.337	546.63
212.569	547.14
212.801	549.02
213.033	550.87
213.264	553.47
213.496	555.49
213.728	557.4
213.96	558.94
214.192	562.12
214.424	562.96
214.656	565.16
214.887	567.32
215.119	571.14
215.351	573.27
215.583	575.34
215.815	576.96
216.046	577.2
216.278	578.94
216.51	581.69
216.741	583.67
216.973	584.71
217.205	584.91
217.436	587.02
217.668	588.07
217.9	589.87
218.131	591.72
218.363	592.29
218.595	595.32
218.826	596.94
219.058	597.18
219.289	597.82
219.521	600.51
219.752	602.36
219.984	601.94
220.215	601.83
220.447	602.02
220.678	602.29
220.91	604.45
221.141	604.07
221.373	605.52
221.604	607.02
221.836	607.49
222.067	608.49
222.298	609.87
222.53	612.09
222.761	613.02
222.993	614.67
223.224	616.85
223.455	618.03
223.686	619.34
223.918	620.82
224.149	621.6
224.38	623.76
224.612	623.82
224.843	625.29
225.074	626.4
225.305	627.18
225.536	627.71
225.768	629.11
225.999	630.31
226.23	631.22
226.461	631.36
226.692	631.94
226.923	631.34
227.155	633.51
227.386	634.65
227.617	634.69
227.848	635.18
228.079	636.65
228.31	636.42
228.541	635.47
228.772	635.65
229.003	634.94
229.234	636.67
229.465	637.32
229.696	637.56
229.927	637.09
230.158	637.4
230.389	637.49
230.62	637.91
230.85	637.87
231.081	637.54
231.312	638.16
231.543	637.96
231.774	637.4
232.005	636.74
232.236	635.74
232.466	635.34
232.697	635.67
232.928	635.09
233.159	634.12
233.389	633.89
233.62	635
233.851	635.22
234.082	634.67
234.312	634.45
234.543	634.85
234.774	634.36
235.004	634.29
235.235	634.02
235.466	635.09
235.696	635.98
235.927	635.65
236.157	634.8
236.388	633.85
236.618	634.89
236.849	634.14
237.08	635.02
237.31	635.58
237.541	634.32
237.771	634.27
238.002	634.27
238.232	632.96
238.463	632.69
238.693	632.78
238.923	631.91
239.154	631.03
239.384	631
239.615	629.23
239.845	628.65
240.075	630.07
240.306	628.56
240.536	627.02
240.766	626.29
240.997	627.25
241.227	628.29
241.457	628.96
241.687	630
241.918	630.16
242.148	630
242.378	629.18
242.608	628.25
242.839	627.54
243.069	627.89
243.299	626.98
243.529	626.62
243.759	625.07
243.989	623.96
244.22	623.22
244.45	621.94
244.68	621.29
244.91	620.23
245.14	619.94
245.37	620.54
245.6	619.36
245.83	620.36
246.06	619.32
246.29	618.58
246.52	618.76
246.75	617.49
246.98	618.27
247.21	617.62
247.44	617.72
247.67	616.98
247.9	616.98
248.13	617.45
248.359	617.16
248.589	615.45
248.819	614.6
249.049	613.23
249.279	612.36
249.509	611.32
249.738	610.36
249.968	609.6
250.198	607.52
250.428	607.07
250.657	606.03
250.887	604.12
251.117	604.2
251.347	603.47
251.576	602.91
251.806	602.83
252.036	602.74
252.265	602.8
252.495	603.29
252.725	603.83
252.954	602.23
253.184	602.38
253.413	602.74
253.643	602.52
253.873	601.52
254.102	600.74
254.332	600.27
254.561	599.98
254.791	599.82
255.02	598.16
255.25	597.58
255.479	597.07
255.708	595.07
255.938	594.52
256.167	592.83
256.397	592.36
256.626	592.6
256.856	592.38
257.085	590.43
257.314	589.82
257.544	590.12
257.773	589.67
258.002	589.25
258.232	588.89
258.461	587.65
258.69	587.98
258.919	587.91
259.149	586.58
259.378	585.34
259.607	584.63
259.836	583.23
260.065	582.62
260.295	582.58
260.524	581.96
260.753	581.43
260.982	580.25
261.211	579.36
261.44	578.83
261.669	578.89
261.899	578.45
262.128	576.72
262.357	576.29
262.586	576
262.815	574.18
263.044	574.36
263.273	576.14
263.502	574.58
263.731	573.74
263.96	572.49
264.189	570.52
264.418	568.96
264.646	569.34
264.875	569.52
265.104	567.22
265.333	566.87
265.562	564.8
265.791	560.12
266.02	559.82
266.249	559.16
266.477	559.07
266.706	558.56
266.935	558.42
267.164	557.89
267.393	557.29
267.621	557.18
267.85	556.56
268.079	556.54
268.307	556.07
268.536	555.96
268.765	555.12
268.993	554.25
269.222	553.72
269.451	553.43
269.679	552.76
269.908	551.42
270.137	550.83
270.365	550.32
270.594	550.29
270.822	551.8
271.051	551.45
271.279	550.96
271.508	552.02
271.736	553.45
271.965	553.87
272.193	554.92
272.422	556.02
272.65	556.07
272.879	555.6
273.107	554.43
273.336	554.05
273.564	553.85
273.792	553.87
274.021	551.85
274.249	551.03
274.477	547.4
274.706	545
274.934	542.96
275.162	542.16
275.391	540.67
275.619	539.58
275.847	538.43
276.075	536.92
276.304	535.51
276.532	534.34
276.76	533.18
276.988	534.45
277.216	533.43
277.445	532.71
277.673	532.16
277.901	531.51
278.129	531.43
278.357	529.89
278.585	530.49
278.813	529.91
279.041	528.89
279.269	526.49
279.497	525.07
279.725	524.76
279.954	524.03
280.182	524.45
280.41	524.23
280.637	524.6
280.865	524.03
281.093	523.34
281.321	523.89
281.549	524.18
281.777	526.12
282.005	526.25
282.233	526.11
282.461	525.76
282.689	523.42
282.916	523.31
283.144	521.69
283.372	520.91
283.6	520.27
283.828	518.12
284.055	517.65
284.283	516.69
284.511	516.25
284.739	516.25
284.966	516.2
285.194	516.29
285.422	515.52
285.649	514.63
285.877	514.82
286.105	513.47
286.332	513.76
286.56	514.2
286.788	513.23
287.015	512.54
287.243	510.47
287.47	510.31
287.698	509.02
287.925	509.85
288.153	509.45
288.381	508.4
288.608	507.83
288.836	507.43
289.063	505.36
289.29	504.4
289.518	503.54
289.745	504.05
289.973	502.67
290.2	502.31
290.428	500.78
290.655	499.71
290.882	499.67
291.11	500.03
291.337	498.76
291.564	498.82
291.792	498.83
292.019	497.98
292.246	496.74
292.473	494.72
292.701	495.25
292.928	494.32
293.155	493.74
293.382	494.05
293.61	493
293.837	492.38
294.064	491.42
294.291	489.63
294.518	488.71
294.745	489.49
294.972	490.18
295.2	487.05
295.427	486.45
295.654	486.49
295.881	484.09
296.108	484.11
296.335	484.03
296.562	484.4
296.789	484.02
297.016	484.74
297.243	482.85
297.47	481.74
297.697	481.63
297.924	482.03
298.151	480.58
298.378	480.72
298.604	479.54
298.831	479.05
299.058	479.29
299.285	478.69
299.512	477.47
299.739	478.07
299.966	477.18
300.192	478.34
300.419	477.76
300.646	477.78
300.873	477.23
301.099	477.07
301.326	476.12
301.553	473.71
301.78	474.71
302.006	473.07
302.233	473.18
302.46	473.6
302.686	472.52
302.913	471.52
303.14	470.85
303.366	471.62
303.593	470.67
303.819	470.87
304.046	470.72
304.272	469.12
304.499	470.45
304.725	469.27
304.952	468.58
305.179	468.32
305.405	468.98
305.631	468.63
305.858	468.16
306.084	467.36
306.311	466.6
306.537	466.76
306.764	466.8
306.99	466.83
307.216	465.94
307.443	466.11
307.669	465.58
307.895	463.91
308.122	464
308.348	462.8
308.574	464
308.801	464.09
309.027	462.8
309.253	462.22
309.479	461.36
309.706	461.29
309.932	460.71
310.158	460.85
310.384	460.54
310.61	461.22
310.837	460.72
311.063	460.11
311.289	459.91
311.515	460.67
311.741	461.2
311.967	462.63
312.193	462.2
312.419	463.25
312.645	463.32
312.871	463.22
313.097	462.54
313.323	463
313.549	463.29
313.775	462.83
314.001	462.49
314.227	462.78
314.453	461.31
314.679	462.43
314.905	461.8
315.131	462.85
315.357	464.23
315.583	465.11
315.809	465.69
316.034	464.49
316.26	464.83
316.486	465.49
316.712	465.92
316.938	466.2
317.163	466.45
317.389	466.09
317.615	464.98
317.841	465.65
318.066	465.29
318.292	464.92
318.518	466.8
318.743	467.43
318.969	467.83
319.195	468.58
319.42	469.82
319.646	471.18
319.872	472.76
320.097	474.07
320.323	475.65
320.548	477.34
320.774	478.98
320.999	479.02
321.225	480.02
321.45	481.36
321.676	482.09
321.901	482.87
322.127	483.25
322.352	484.56
322.578	486.36
322.803	486.92
323.029	488.42
323.254	490.65
323.479	493.16
323.705	494.8
323.93	494.98
324.155	495.94
324.381	497.87
324.606	499.76
324.831	502.56
325.057	504.29
325.282	506.34
325.507	508.22
325.732	509.12
325.958	511.16
326.183	513.34
326.408	517.07
326.633	521.4
326.858	524.85
327.084	527.29
327.309	529.52
327.534	533.78
327.759	536.05
327.984	539.02
328.209	542.14
328.434	545.07
328.659	548.63
328.884	552.67
329.109	554.27
329.334	556.85
329.559	560.92
329.784	563.05
330.009	564.71
330.234	568.58
330.459	572.52
330.684	576.67
330.909	580.45
331.134	584.89
331.359	587.43
331.584	591.65
331.809	594.85
332.034	598.4
332.259	602.52
332.483	607.4
332.708	611.36
332.933	615.96
333.158	618.91
333.383	624.82
333.607	629.71
333.832	635.74
334.057	640.67
334.282	646.72
334.506	652.25
334.731	657.6
334.956	663.76
335.18	668.98
335.405	674.63
335.63	681.76
335.854	686.23
336.079	690.32
336.303	696.09
336.528	701.43
336.753	707.22
336.977	713.42
337.202	720.36
337.426	725.87
337.651	732.2
337.875	738.29
338.1	744.25
338.324	752.02
338.549	760.56
338.773	768.23
338.997	776.27
339.222	784.38
339.446	791.2
339.671	800
339.895	806.27
340.119	814.83
340.344	822.91
340.568	830.96
340.792	838.51
341.017	844.98
341.241	852.58
341.465	861.14
341.689	867.23
341.914	875.23
342.138	881.38
342.362	890.98
342.586	898.67
342.811	907
343.035	915.43
343.259	923.42
343.483	934.22
343.707	943.42
343.931	953.12
344.155	963.05
344.38	973.11
344.604	984.58
344.828	993.2
345.052	1001.29
345.276	1008.72
345.5	1017.49
345.724	1026.51
345.948	1034.54
346.172	1042.58
346.396	1051.85
346.62	1061.94
346.844	1070.56
347.068	1079.2
347.292	1091.71
347.515	1101.65
347.739	1114.69
347.963	1124.42
348.187	1135.76
348.411	1145.49
348.635	1156.82
348.859	1166.43
349.082	1176.82
349.306	1186.6
349.53	1196.42
349.754	1205.49
349.977	1218.65
350.201	1229.05
350.425	1241.72
350.649	1251.76
350.872	1264.94
351.096	1276.82
351.32	1287.94
351.543	1298.87
351.767	1311.69
351.99	1324.89
352.214	1336.2
352.438	1347.49
352.661	1357.78
352.885	1370.27
353.108	1382.42
353.332	1394.4
353.555	1403.22
353.779	1416.2
354.002	1428.07
354.226	1440.56
354.449	1452.32
354.673	1463.87
354.896	1475.31
355.12	1486.67
355.343	1498.34
355.566	1510.89
355.79	1522.65
356.013	1538.18
356.237	1549.94
356.46	1563.07
356.683	1574.94
356.907	1585.34
357.13	1599.4
357.353	1612.14
357.576	1625.78
357.8	1637.14
358.023	1650.52
358.246	1662.25
358.469	1673.43
358.693	1685.85
358.916	1699.36
359.139	1712.74
359.362	1728.58
359.585	1740.07
359.808	1752.22
360.031	1764.16
360.255	1778.6
360.478	1788.72
360.701	1803.03
360.924	1817.94
361.147	1831.42
361.37	1843.29
361.593	1856.89
361.816	1869.52
362.039	1884.71
362.262	1898.96
362.485	1914.12
362.708	1927.05
362.931	1943.09
363.154	1956.49
363.377	1969.74
363.599	1983.69
363.822	1996.74
364.045	2009.56
364.268	2022.27
364.491	2037.18
364.714	2050.14
364.936	2063.03
365.159	2078.67
365.382	2093.98
365.605	2108.89
365.828	2126.2
366.05	2141.05
366.273	2159.23
366.496	2175.38
366.718	2193.43
366.941	2207.94
367.164	2226.51
367.386	2241.74
367.609	2255.91
367.832	2271.34
368.054	2285.85
368.277	2298.58
368.5	2315.18
368.722	2330.34
368.945	2347.47
369.167	2362.6
369.39	2378.94
369.612	2393.98
369.835	2412.09
370.057	2432
370.28	2447.89
370.502	2465.43
370.725	2484.51
370.947	2502.2
371.169	2518.67
371.392	2535.98
371.614	2553.78
371.837	2570.82
372.059	2589.8
372.281	2606.96
372.504	2624
372.726	2642.63
372.948	2662.85
373.171	2680.51
373.393	2696.71
373.615	2714.22
373.837	2730.65
374.06	2748.4
374.282	2766.72
374.504	2784.18
374.726	2802.76
374.948	2820.83
375.17	2840.6
375.393	2857.98
375.615	2876.38
375.837	2897.22
376.059	2918.71
376.281	2936.85
376.503	2954.94
376.725	2975.78
376.947	2992.85
377.169	3014.05
377.391	3033.47
377.613	3053.51
377.835	3075.56
378.057	3096.92
378.279	3118.49
378.501	3140.36
378.723	3162.83
378.945	3186.76
379.167	3207.18
379.389	3235.42
379.611	3256.98
379.833	3279.91
380.054	3302.78
380.276	3324.47
380.498	3348.07
380.72	3374.8
380.942	3395.22
381.163	3420.38
381.385	3444.14
381.607	3470.74
381.829	3492.92
382.05	3521.07
382.272	3547.25
382.494	3573.98
382.716	3598.56
382.937	3624.78
383.159	3648.12
383.381	3678.94
383.602	3703.65
383.824	3729.76
384.045	3754.69
384.267	3781.87
384.488	3806.65
384.71	3832.43
384.932	3858.29
385.153	3889.54
385.375	3917.2
385.596	3942.96
385.818	3968.09
386.039	3997.8
386.261	4023.89
386.482	4053.05
386.703	4080.71
386.925	4108.91
387.146	4141.65
387.368	4169.6
387.589	4198.65
387.81	4227.4
388.032	4255.62
388.253	4286.38
388.474	4316.6
388.696	4348.23
388.917	4376.62
389.138	4406.52
389.359	4435.52
389.581	4464.69
389.802	4495.54
390.023	4523.29
390.244	4551.82
390.465	4582.34
390.687	4611.02
390.908	4640.69
391.129	4672.03
391.35	4702.98
391.571	4732.89
391.792	4762.71
392.013	4792.92
392.234	4823.56
392.455	4856.18
392.677	4887.96
392.898	4920.56
393.119	4952.25
393.34	4988.31
393.561	5019.45
393.782	5050.65
394.003	5082.32
394.223	5114.45
394.444	5146.11
394.665	5180.14
394.886	5212.07
395.107	5244.11
395.328	5277.82
395.549	5313.6
395.77	5343.51
395.99	5379.07
396.211	5415.98
396.432	5450.47
396.653	5485.74
396.874	5519.11
397.094	5551.98
397.315	5586.89
397.536	5623.85
397.757	5659.23
397.977	5692.72
398.198	5729.87
398.419	5765.14
398.639	5801.02
398.86	5834.78
399.081	5871.31
399.301	5906.82
399.522	5944.94
399.742	5982.22
399.963	6016.03
400.184	6052.87
400.404	6090.42
400.625	6120.58
400.845	6156.43
401.066	6190.34
401.286	6225.36
401.507	6258.6
401.727	6294.4
401.948	6326.03
402.168	6360.54
402.388	6396.74
402.609	6431.32
402.829	6464.71
403.05	6504.67
403.27	6537.4
403.49	6571.29
403.711	6610.31
403.931	6648.2
404.151	6679.14
404.372	6716.4
404.592	6750.65
404.812	6788.11
405.032	6817.78
405.253	6853.56
405.473	6890
405.693	6930.71
405.913	6967.89
406.133	7003.87
406.353	7042.51
406.574	7083.27
406.794	7120.07
407.014	7158.4
407.234	7195.23
407.454	7238.14
407.674	7273.25
407.894	7304.92
408.114	7338.83
408.334	7375.22
408.554	7412.67
408.774	7449.92
408.994	7483.25
409.214	7520.22
409.434	7557.14
409.654	7591.56
409.874	7623.52
410.094	7662.91
410.314	7702.31
410.534	7739.92
410.754	7776.83
410.974	7816.31
411.193	7853
411.413	7895.49
411.633	7931.11
411.853	7969.32
412.073	8010.56
412.292	8055.11
412.512	8095.96
412.732	8135.31
412.952	8172.38
413.171	8213.16
413.391	8251.42
413.611	8295
413.831	8338.71
414.05	8386.31
414.27	8426.8
414.489	8464.78
414.709	8506.38
414.929	8547.98
415.148	8594.29
415.368	8637.94
415.587	8682.89
415.807	8722.16
416.026	8763.31
416.246	8805.92
416.465	8849.29
416.685	8893.27
416.904	8937.07
417.124	8982.6
417.343	9025.03
417.563	9065.85
417.782	9111.2
418.002	9155.27
418.221	9197.25
418.44	9237.63
418.66	9278.05
418.879	9317.94
419.098	9363.47
419.318	9410.8
419.537	9454.29
419.756	9499.34
419.976	9544.22
420.195	9589.62
420.414	9630.31
420.633	9675.87
420.853	9721.18
421.072	9760.34
421.291	9806.54
421.51	9844.25
421.729	9885.85
421.948	9921.56
422.168	9960.72
422.387	10005.18
422.606	10044.72
422.825	10087.23
423.044	10134.51
423.263	10179.74
423.482	10233.02
423.701	10274.58
423.92	10320.51
424.139	10362.27
424.358	10410.45
424.577	10459.4
424.796	10506.71
425.015	10555.22
425.234	10603.09
425.453	10649.8
425.672	10696.25
425.891	10741.16
426.11	10786.36
426.328	10839.09
426.547	10886.32
426.766	10935.58
426.985	10982.49
427.204	11026.47
427.422	11073.78
427.641	11120.09
427.86	11164.62
428.079	11207.94
428.297	11252.23
428.516	11300.11
428.735	11345.94
428.954	11395.03
429.172	11440.51
429.391	11486.49
429.61	11533.36
429.828	11580.11
430.047	11629.42
430.265	11680.16
430.484	11732.38
430.703	11778.23
430.921	11824.36
431.14	11866.11
431.358	11913.92
431.577	11958.98
431.795	12008.34
432.014	12061.07
432.232	12111.51
432.451	12160.22
432.669	12206.82
432.887	12252.65
433.106	12302.27
433.324	12355.23
433.543	12404.03
433.761	12450.94
433.979	12504.45
434.198	12552.51
434.416	12592.47
434.634	12635.76
434.853	12682.42
435.071	12728.6
435.289	12774.12
435.507	12819.58
435.726	12860.49
435.944	12905.76
436.162	12957.03
436.38	13000.45
436.598	13045.6
436.817	13098.45
437.035	13145.36
437.253	13191.67
437.471	13240.89
437.689	13288.23
437.907	13338.12
438.125	13385.82
438.343	13443.34
438.561	13491.52
438.78	13538.4
438.998	13582.78
439.216	13629.22
439.434	13677.4
439.652	13725.05
439.869	13776.92
440.087	13829.18
440.305	13877.09
440.523	13927.78
440.741	13963.27
440.959	14008.27
441.177	14059.2
441.395	14107.38
441.613	14157.05
441.831	14206.45
442.048	14257.11
442.266	14298.49
442.484	14343.16
442.702	14394.51
442.919	14442.85
443.137	14498.92
443.355	14547.4
443.573	14596.62
443.79	14649.65
444.008	14692.67
444.226	14736.82
444.443	14786.96
444.661	14835.42
444.879	14879.87
445.096	14926.91
445.314	14979.29
445.532	15027.45
445.749	15079.76
445.967	15129.92
446.184	15175.71
446.402	15230.05
446.619	15284.14
446.837	15329.74
447.054	15377.65
447.272	15428.62
447.489	15475.27
447.707	15520.16
447.924	15567.12
448.141	15614.07
448.359	15659.91
448.576	15710.12
448.794	15761.27
449.011	15806.34
449.228	15853.96
449.446	15908.92
449.663	15955.74
449.88	15996.51
450.098	16042.82
450.315	16084.94
450.532	16127.91
450.749	16178.32
450.967	16230.14
451.184	16272.12
451.401	16322.69
451.618	16371.34
451.835	16410.2
452.052	16458.76
452.27	16515.87
452.487	16565.43
452.704	16623.42
452.921	16674.05
453.138	16722.32
453.355	16768.29
453.572	16810.34
453.789	16854.05
454.006	16900.42
454.223	16951.52
454.44	17006.6
454.657	17049.16
454.874	17092.92
455.091	17137.51
455.308	17180.49
455.525	17226.65
455.742	17270.87
455.959	17327
456.176	17375
456.393	17426.18
456.609	17473.51
456.826	17519.16
457.043	17569.36
457.26	17617.22
457.477	17661.36
457.693	17711.63
457.91	17753.52
458.127	17794.72
458.344	17833.14
458.56	17878.32
458.777	17916.98
458.994	17955.07
459.21	17986.65
459.427	18019.82
459.644	18055.71
459.86	18092.32
460.077	18122.98
460.294	18160
460.51	18202.11
460.727	18244.03
460.943	18274.72
461.16	18310.52
461.376	18353.29
461.593	18396.43
461.809	18441.69
462.026	18484.43
462.242	18526.65
462.459	18569.16
462.675	18601.82
462.892	18638.49
463.108	18682.92
463.324	18724.87
463.541	18768.54
463.757	18809.14
463.974	18856.51
464.19	18890.32
464.406	18934.16
464.623	18977.92
464.839	19027.34
465.055	19083.45
465.271	19136.6
465.488	19179.96
465.704	19235.07
465.92	19281.23
466.136	19335.76
466.353	19379.87
466.569	19437.94
466.785	19495.16
467.001	19549.82
467.217	19610.36
467.433	19667.49
467.649	19723.51
467.865	19775.98
468.082	19834.76
468.298	19896.85
468.514	19957.16
468.73	20022.31
468.946	20084.02
469.162	20154.07
469.378	20206.87
469.594	20261.74
469.81	20320.56
470.026	20381.03
470.242	20438.69
470.457	20505.6
470.673	20568.12
470.889	20634.02
471.105	20701.56
471.321	20775.23
471.537	20845.22
471.753	20925.18
471.968	20998.27
472.184	21075.22
472.4	21146.29
472.616	21226.8
472.832	21300.38
473.047	21378.56
473.263	21450.14
473.479	21526.31
473.694	21588.89
473.91	21653.11
474.126	21728.94
474.341	21799.4
474.557	21877.09
474.773	21948.72
474.988	22020.74
475.204	22085.14
475.42	22152.65
475.635	22224.51
475.851	22293.47
476.066	22372.27
476.282	22438.89
476.497	22504.96
476.713	22576.31
476.928	22630.65
477.144	22703.62
477.359	22764.71
477.575	22836.29
477.79	22901.6
478.005	22965.8
478.221	23023.25
478.436	23085.18
478.651	23145.8
478.867	23201.89
479.082	23264.03
479.297	23332.98
479.513	23380.78
479.728	23438.27
479.943	23486
480.159	23538.71
480.374	23591.09
480.589	23647.82
480.804	23699.49
481.019	23751.27
481.235	23802.82
481.45	23845.05
481.665	23890.45
481.88	23950.31
482.095	24004.09
482.31	24061.31
482.525	24112.23
482.741	24158.29
482.956	24199.51
483.171	24241.18
483.386	24290.56
483.601	24339.52
483.816	24385.67
484.031	24431.72
484.246	24474.31
484.461	24517.2
484.676	24552.4
484.891	24600
485.105	24644.03
485.32	24687.43
485.535	24743.76
485.75	24787.4
485.965	24825.52
486.18	24871.65
486.395	24912.4
486.609	24948.74
486.824	24988.43
487.039	25039.91
487.254	25084.42
487.469	25124.31
487.683	25170.8
487.898	25198.78
488.113	25243.27
488.327	25280.65
488.542	25316.14
488.757	25354.38
488.972	25388.47
489.186	25425.74
489.401	25458.38
489.615	25486.89
489.83	25522.87
490.045	25558.43
490.259	25599.65
490.474	25629.42
490.688	25669.56
490.903	25707.27
491.117	25734.92
491.332	25772.36
491.546	25808.09
491.761	25835.71
491.975	25869.18
492.19	25897
492.404	25922.16
492.618	25949.51
492.833	25973.12
493.047	26008.36
493.262	26034.31
493.476	26062.67
493.69	26091.38
493.905	26122.65
494.119	26152.34
494.333	26173.32
494.547	26209.18
494.762	26244.47
494.976	26275.18
495.19	26300.4
495.404	26322.29
495.619	26350.2
495.833	26375.38
496.047	26396.38
496.261	26413.83
496.475	26430.12
496.689	26444.27
496.903	26450.94
497.117	26444.54
497.332	26436.51
497.546	26436.45
497.76	26422.67
497.974	26408.71
498.188	26396.03
498.402	26387.76
498.616	26373.83
498.83	26365.78
499.044	26364.02
499.258	26351.43
499.472	26356.25
499.685	26358.67
499.899	26372.69
500.113	26393.74
500.327	26408.82
500.541	26432.78
500.755	26453.31
500.969	26478.38
501.183	26502.6
501.396	26513.82
501.61	26537.27
501.824	26556.62
502.038	26581.74
502.251	26592.71
502.465	26604.98
502.679	26625.54
502.892	26639.65
503.106	26645.36
503.32	26659.71
503.533	26669.47
503.747	26694.11
503.961	26720.12
504.174	26744.16
504.388	26778.65
504.602	26808.94
504.815	26843.14
505.029	26884.25
505.242	26937.09
505.456	26985.38
505.669	27032.85
505.883	27089.05
506.096	27146.45
506.31	27197.58
506.523	27254.62
506.736	27303.76
506.95	27362.76
507.163	27415.09
507.377	27467.8
507.59	27514.8
507.803	27571.67
508.017	27632.82
508.23	27687.4
508.443	27752.6
508.657	27816.71
508.87	27881.91
509.083	27944.31
509.296	28011.8
509.51	28091.43
509.723	28169
509.936	28246.6
510.149	28340.69
510.363	28424.52
510.576	28517.92
510.789	28604.78
511.002	28705.85
511.215	28797.54
511.428	28899.62
511.641	28995.94
511.854	29084.43
512.067	29181.54
512.28	29288.29
512.493	29388.25
512.707	29491.25
512.92	29594.23
513.132	29692.03
513.345	29786.4
513.558	29899.18
513.771	30005.49
513.984	30118.72
514.197	30238.69
514.41	30352.71
514.623	30461.18
514.836	30566.85
515.049	30675.12
515.262	30784.14
515.474	30894.8
515.687	31002.71
515.9	31097.52
516.113	31194.94
516.325	31288.54
516.538	31377.47
516.751	31474.47
516.964	31564.05
517.176	31659.47
517.389	31742.31
517.602	31828.63
517.814	31908.87
518.027	31992.2
518.24	32079.91
518.452	32157.83
518.665	32243.6
518.877	32322.98
519.09	32392.6
519.303	32465.45
519.515	32528.49
519.728	32601.42
519.94	32676.76
520.153	32748.02
520.365	32810.18
520.578	32877.32
520.79	32954.63
521.002	33014.36
521.215	33079.54
521.427	33138.49
521.64	33189.76
521.852	33245.71
522.064	33309.67
522.277	33357.63
522.489	33409.89
522.701	33464.43
522.914	33509.8
523.126	33546.09
523.338	33586.71
523.551	33631.76
523.763	33674.8
523.975	33730.83
524.187	33784.52
524.399	33822.69
524.612	33862.22
524.824	33905.69
525.036	33953.42
525.248	33999.03
525.46	34048.12
525.672	34097.87
525.884	34140.07
526.096	34183.82
526.308	34218.52
526.521	34249.18
526.733	34288.51
526.945	34322.85
527.157	34356.2
527.369	34388.38
527.581	34413.4
527.793	34443.16
528.004	34469.52
528.216	34503.83
528.428	34531.11
528.64	34561.56
528.852	34592.42
529.064	34619.96
529.276	34652.18
529.488	34681.58
529.699	34705.89
529.911	34742.29
530.123	34762.4
530.335	34796.56
530.547	34824.76
530.758	34849.22
530.97	34886.74
531.182	34917.36
531.393	34952.89
531.605	34988.96
531.817	35028.52
532.029	35062.14
532.24	35094.14
532.452	35131.18
532.663	35156.62
532.875	35169.22
533.087	35195.74
533.298	35213.29
533.51	35234.85
533.721	35251.65
533.933	35260.12
534.144	35272.63
534.356	35291.29
534.567	35303.34
534.779	35321.92
534.99	35342.8
535.202	35372.14
535.413	35399.92
535.624	35415.09
535.836	35437.12
536.047	35458.4
536.259	35482.45
536.47	35500.27
536.681	35511.83
536.893	35540.58
537.104	35556.56
537.315	35570.6
537.526	35582.45
537.738	35595.12
537.949	35610.12
538.16	35628.54
538.371	35643.4
538.582	35664.51
538.794	35682.18
539.005	35706.8
539.216	35714.05
539.427	35737.58
539.638	35753.14
539.849	35772.51
540.06	35789.85
540.272	35805.62
540.483	35821.07
540.694	35834.11
540.905	35847.32
541.116	35866.12
541.327	35879.11
541.538	35896.12
541.749	35903.94
541.96	35912.27
542.17	35924.32
542.381	35941.65
542.592	35959.49
542.803	35956.16
543.014	35965.09
543.225	35979.38
543.436	35979.27
543.647	35990.52
543.857	36004.4
544.068	36009.27
544.279	36023.54
544.49	36032.71
544.701	36031.16
544.911	36044.36
545.122	36073.91
545.333	36091.02
545.543	36101.83
545.754	36115.72
545.965	36127.92
546.175	36125.14
546.386	36135.69
546.597	36150.76
546.807	36164.83
547.018	36187.2
547.229	36195.78
547.439	36194
547.65	36200.11
547.86	36194.62
548.071	36210.12
548.281	36209.72
548.492	36217.18
548.702	36225.22
548.913	36228.45
549.123	36237.62
549.333	36240.52
549.544	36241.54
549.754	36254.51
549.965	36261.27
550.175	36288.14
550.385	36298.94
550.596	36317.47
550.806	36335.98
551.016	36355.98
551.227	36365.02
551.437	36374.54
551.647	36380.03
551.857	36399.23
552.068	36413.29
552.278	36416.71
552.488	36421.78
552.698	36421.67
552.908	36425
553.119	36431.8
553.329	36430.18
553.539	36437.14
553.749	36431.14
553.959	36436.63
554.169	36429.32
554.379	36420.83
554.589	36438.14
554.799	36437.83
555.009	36442.65
555.219	36441.98
555.429	36443.78
555.639	36449.63
555.849	36456.89
556.059	36459.74
556.269	36459.2
556.479	36458.18
556.689	36466.58
556.899	36460.29
557.109	36464.11
557.319	36461.74
557.528	36458.6
557.738	36456.78
557.948	36457.16
558.158	36449.65
558.368	36450.11
558.577	36445.4
558.787	36456.16
558.997	36456.25
559.207	36448.16
559.416	36436.54
559.626	36425.56
559.836	36421.74
560.045	36414.34
560.255	36407.49
560.465	36402.18
560.674	36404.43
560.884	36410.4
561.093	36393.74
561.303	36378.87
561.512	36375.74
561.722	36369.69
561.932	36373.32
562.141	36370.92
562.351	36365.89
562.56	36367.67
562.769	36368.29
562.979	36371.29
563.188	36370.07
563.398	36375
563.607	36384.32
563.817	36384.07
564.026	36389.52
564.235	36386.43
564.445	36380.03
564.654	36378.2
564.863	36374.23
565.073	36376.69
565.282	36369.14
565.491	36359.05
565.7	36353.67
565.91	36344.62
566.119	36332.56
566.328	36319.02
566.537	36316.51
566.746	36307.27
566.956	36300.25
567.165	36291.25
567.374	36274.32
567.583	36257.27
567.792	36241.67
568.001	36232.8
568.21	36203.34
568.419	36191.27
568.628	36166.47
568.837	36141.4
569.046	36127.94
569.255	36102.14
569.464	36072.09
569.673	36047.76
569.882	36022.54
570.091	36005.78
570.3	35981.6
570.509	35977.4
570.718	35964
570.927	35962.89
571.135	35953.91
571.344	35945.87
571.553	35958.71
571.762	35960.62
571.971	35972.34
572.18	35970.45
572.388	35964.49
572.597	35944.27
572.806	35927.42
573.014	35910.74
573.223	35887.45
573.432	35871.29
573.641	35849.65
573.849	35818.89
574.058	35794
574.266	35752.62
574.475	35733.78
574.684	35712.32
574.892	35709.89
575.101	35698.71
575.309	35689.63
575.518	35691.02
575.726	35672.27
575.935	35662.07
576.143	35642
576.352	35622.69
576.56	35607.32
576.769	35588.71
576.977	35573.43
577.186	35550.52
577.394	35532.29
577.602	35504.71
577.811	35481.74
578.019	35466.71
578.228	35450.47
578.436	35436.67
578.644	35418.63
578.852	35409.16
579.061	35386.56
579.269	35372.67
579.477	35353.27
579.685	35340.29
579.894	35323.58
580.102	35296.49
580.31	35290.07
580.518	35270.78
580.726	35255.65
580.935	35247.83
581.143	35221.83
581.351	35210
581.559	35188.18
581.767	35165.56
581.975	35131.71
582.183	35111.07
582.391	35081.32
582.599	35049.6
582.807	35028.67
583.015	35009.85
583.223	34990.32
583.431	34974.43
583.639	34952.58
583.847	34926.22
584.055	34907.87
584.263	34903.54
584.471	34884.58
584.678	34871
584.886	34857.82
585.094	34832.82
585.302	34806.76
585.51	34781.18
585.718	34757.52
585.925	34728.63
586.133	34712.47
586.341	34696.96
586.549	34663.05
586.756	34644.71
586.964	34622.32
587.172	34593.63
587.379	34570.12
587.587	34545.92
587.795	34518.14
588.002	34498.09
588.21	34487.85
588.417	34458.32
588.625	34429.69
588.833	34415.16
589.04	34396.31
589.248	34379.67
589.455	34352.03
589.663	34340.71
589.87	34323.09
590.078	34305.67
590.285	34288.4
590.492	34261.74
590.7	34246.72
590.907	34228.32
591.115	34200.91
591.322	34177.02
591.529	34149.78
591.737	34126.69
591.944	34097.36
592.151	34070.96
592.359	34044.29
592.566	34012.62
592.773	33985.72
592.981	33953.25
593.188	33924.29
593.395	33906.45
593.602	33873.52
593.809	33853.07
594.017	33836.16
594.224	33811
594.431	33781.52
594.638	33745.87
594.845	33708.94
595.052	33687.91
595.259	33662.29
595.466	33649.49
595.673	33619.47
595.88	33609.09
596.088	33583.31
596.295	33557.11
596.502	33531.89
596.709	33500.96
596.915	33482.23
597.122	33471.25
597.329	33446.78
597.536	33432.09
597.743	33394.52
597.95	33370.82
598.157	33334.65
598.364	33300.87
598.571	33258.32
598.777	33210.25
598.984	33174.56
599.191	33134.63
599.398	33089.67
599.605	33039
599.811	32979.8
600.018	32927.49
600.225	32873.74
600.431	32823.54
600.638	32787.09
600.845	32763.78
601.052	32742.56
601.258	32714.45
601.465	32680.71
601.671	32624.27
601.878	32570.74
602.085	32503.18
602.291	32411.02
602.498	32303.03
602.704	32166.38
602.911	32012.29
603.117	31833.12
603.324	31628.18
603.53	31402.58
603.737	31168.03
603.943	30932.87
604.15	30681.2
604.356	30432.65
604.562	30174.58
604.769	29912.85
604.975	29653.85
605.181	29384.82
605.388	29111.52
605.594	28845.25
605.8	28586.85
606.007	28309.76
606.213	28039.51
606.419	27765.2
606.625	27486.16
606.832	27215.43
607.038	26943.31
607.244	26672.67
607.45	26413.4
607.656	26142.51
607.863	25873.8
608.069	25594.11
608.275	25323.11
608.481	25046.36
608.687	24771.65
608.893	24487.69
609.099	24211.14
609.305	23925.07
609.511	23643.14
609.717	23341.69
609.923	23045.58
610.129	22744.78
610.335	22447
610.541	22144.16
610.747	21837.69
610.953	21529.83
611.159	21229.45
611.365	20916.51
611.571	20600.02
611.776	20272.89
611.982	19952.72
612.188	19634.36
612.394	19311.74
612.6	18989.45
612.806	18667.47
613.011	18344.71
613.217	18016.47
613.423	17686.91
613.628	17364.51
613.834	17050.31
614.04	16740.09
614.246	16434.6
614.451	16127.29
614.657	15835.83
614.862	15543.89
615.068	15260.07
615.274	14980.47
615.479	14706.42
615.685	14443.62
615.89	14182.18
616.096	13921.36
616.301	13666.51
616.507	13402.49
616.712	13141.34
616.918	12870.42
617.123	12604.02
617.329	12334.03
617.534	12060.12
617.74	11782.63
617.945	11502.58
618.15	11198.38
618.356	10727.74
618.561	9865.2
618.766	8824.36
618.972	7753.45
619.177	6709.29
619.382	5687.85
619.588	4692.69
619.793	4100.17
619.998	3409.86
620.203	2572.16
620.408	1571.03
620.614	585.8
