Data from test1_MAYP1115451__92__10-15-08-520.txt Node

Date: Wed Jun 12 10:15:08 MDT 2024
User: Modes Lab
Spectrometer: MAYP111545
Trigger mode: 0
Integration Time (sec): 8.000000E-3
Scans to average: 5
Electric dark correction enabled: true
Nonlinearity correction enabled: false
Boxcar width: 5
XAxis mode: Wavelengths
Number of Pixels in Spectrum: 2068
>>>>>Begin Spectral Data<<<<<
165.214	163.37
165.449	163.69
165.683	172.78
165.918	182.21
166.152	188.61
166.387	193.54
166.621	125.67
166.856	164.58
167.09	183.63
167.325	207.51
167.559	224.22
167.794	238.72
168.028	246.43
168.263	247.42
168.497	246.78
168.732	248.09
168.966	248.96
169.2	250.03
169.435	250.38
169.669	252.02
169.903	253.45
170.138	254.43
170.372	255.32
170.606	256.22
170.841	257.82
171.075	259.74
171.309	260.49
171.544	262.11
171.778	263.6
172.012	266.54
172.246	267.96
172.48	269.42
172.715	271.8
172.949	273.6
173.183	275.58
173.417	277.34
173.651	278.38
173.885	279.69
174.119	280.42
174.354	280.18
174.588	279.63
174.822	279.82
175.056	279.23
175.29	278.49
175.524	278.54
175.758	278.78
175.992	278.83
176.226	279.67
176.46	279.36
176.694	281.02
176.928	282.89
177.162	283.83
177.396	284.51
177.63	286.29
177.864	288.2
178.097	289.78
178.331	290.69
178.565	291.32
178.799	292
179.033	293.49
179.267	293.94
179.5	295.25
179.734	296.22
179.968	297.85
180.202	298.71
180.436	299.07
180.669	299.74
180.903	300.65
181.137	302.62
181.371	303.29
181.604	303.87
181.838	304.56
182.072	305.31
182.305	306.62
182.539	306.87
182.772	307.82
183.006	309.25
183.24	309.58
183.473	313.23
183.707	314.14
183.94	315.45
184.174	316.82
184.408	317.98
184.641	318.82
184.875	319.02
185.108	320.6
185.342	321.56
185.575	322.98
185.808	324.85
186.042	324.07
186.275	325.12
186.509	326.23
186.742	327.6
186.976	329.29
187.209	331.29
187.442	333.87
187.676	335.45
187.909	336.25
188.142	337.49
188.376	338.74
188.609	339.27
188.842	341
189.076	342.87
189.309	345.23
189.542	346.71
189.775	348.18
190.009	349.54
190.242	351.31
190.475	353.85
190.708	355.49
190.941	358.05
191.174	360.18
191.408	361.14
191.641	362.89
191.874	363.98
192.107	365.65
192.34	367.27
192.573	368.67
192.806	370.16
193.039	371.03
193.272	372.56
193.505	373.67
193.738	375.69
193.971	377.18
194.204	379.12
194.437	380.29
194.67	382.22
194.903	383.05
195.136	384.96
195.369	387.69
195.602	390.27
195.835	392.42
196.068	395.12
196.301	396.94
196.533	399.78
196.766	401.05
196.999	403.72
197.232	405.38
197.465	408.05
197.698	410.42
197.93	412.2
198.163	414.23
198.396	416.18
198.629	417.72
198.861	420.42
199.094	422.43
199.327	424.12
199.559	425.42
199.792	426.52
200.025	429.74
200.257	431.92
200.49	433.69
200.723	435.43
200.955	438.18
201.188	441.11
201.42	443.4
201.653	444.85
201.886	447.71
202.118	449.82
202.351	453.47
202.583	455.32
202.816	456.67
203.048	459
203.281	461.32
203.513	462.98
203.745	464.02
203.978	464.83
204.21	467.89
204.443	470.78
204.675	473.76
204.907	476.6
205.14	479.07
205.372	481.14
205.605	483.49
205.837	485.78
206.069	487.89
206.302	488.89
206.534	490.82
206.766	492.45
206.998	493.8
207.231	496.07
207.463	497.91
207.695	500.25
207.927	503.62
208.159	506.36
208.392	508.85
208.624	509.91
208.856	513.85
209.088	516.96
209.32	519.47
209.552	522.05
209.784	524.32
210.017	525.38
210.249	527.12
210.481	529.63
210.713	531.22
210.945	533.69
211.177	536.67
211.409	539.25
211.641	540.72
211.873	542.63
212.105	544.58
212.337	546.29
212.569	547.94
212.801	550.45
213.033	552.02
213.264	553.83
213.496	555.94
213.728	558.32
213.96	559.62
214.192	562.62
214.424	564.32
214.656	565.69
214.887	567.94
215.119	571.22
215.351	572.47
215.583	573.4
215.815	575.23
216.046	576.71
216.278	578.92
216.51	580.29
216.741	581.02
216.973	582.51
217.205	584.69
217.436	587
217.668	589.22
217.9	589.54
218.131	591.78
218.363	593.05
218.595	594.49
218.826	594.23
219.058	596.45
219.289	597.36
219.521	599.67
219.752	601.6
219.984	601.65
220.215	602.78
220.447	605.58
220.678	607.25
220.91	607.91
221.141	608.62
221.373	611.94
221.604	610.78
221.836	613.2
222.067	614.23
222.298	614.72
222.53	616.82
222.761	616.76
222.993	617.96
223.224	620.2
223.455	622.76
223.686	622.67
223.918	622.67
224.149	625.42
224.38	626.36
224.612	626.56
224.843	628.45
225.074	629.74
225.305	630.18
225.536	630.25
225.768	629.38
225.999	629.23
226.23	632.03
226.461	631.63
226.692	632.58
226.923	633.05
227.155	635.83
227.386	634.87
227.617	634.42
227.848	635.07
228.079	634.8
228.31	634.63
228.541	634.94
228.772	635.43
229.003	637.23
229.234	638.07
229.465	636.29
229.696	633.49
229.927	633.02
230.158	632.83
230.389	633.25
230.62	634.83
230.85	635.14
231.081	634.31
231.312	632.8
231.543	632.02
231.774	630.72
232.005	633.34
232.236	633.89
232.466	634.58
232.697	635.16
232.928	633.51
233.159	632.45
233.389	632.94
233.62	633
233.851	634.4
234.082	633.92
234.312	633.85
234.543	632.76
234.774	633.16
235.004	633.45
235.235	633.09
235.466	633.94
235.696	633.38
235.927	633.14
236.157	633.91
236.388	632.98
236.618	633.4
236.849	633.07
237.08	633.51
237.31	633.11
237.541	632.29
237.771	632.38
238.002	632.82
238.232	633.52
238.463	633.22
238.693	631.91
238.923	631.85
239.154	631.47
239.384	631.78
239.615	630.52
239.845	629.54
240.075	629.6
240.306	628.87
240.536	627.83
240.766	626.63
240.997	625.87
241.227	625.89
241.457	625.71
241.687	626.31
241.918	625.52
242.148	625.2
242.378	625.18
242.608	624.29
242.839	622.47
243.069	622.76
243.299	621.51
243.529	623.65
243.759	624.31
243.989	623.29
244.22	621.4
244.45	620.98
244.68	620.63
244.91	621.58
245.14	620.52
245.37	620.76
245.6	621.29
245.83	621.54
246.06	618.85
246.29	617.49
246.52	616.56
246.75	617.05
246.98	617.18
247.21	616.87
247.44	615
247.67	615.09
247.9	614.02
248.13	611.11
248.359	611.18
248.589	610.51
248.819	609.76
249.049	608.47
249.279	606.4
249.509	604.58
249.738	603.85
249.968	602.76
250.198	602.67
250.428	603.34
250.657	603.65
250.887	602.78
251.117	603.07
251.347	603.92
251.576	604.52
251.806	605.18
252.036	605.85
252.265	606.14
252.495	606.49
252.725	605.92
252.954	604.62
253.184	603.62
253.413	604.27
253.643	602.62
253.873	601.45
254.102	601.51
254.332	600.65
254.561	600.23
254.791	599.09
255.02	598.85
255.25	597.4
255.479	597.98
255.708	597.54
255.938	595.18
256.167	595.03
256.397	595.12
256.626	593.11
256.856	592.87
257.085	591.12
257.314	590.62
257.544	590.22
257.773	589.52
258.002	588.67
258.232	588.02
258.461	587.6
258.69	586.16
258.919	584.07
259.149	583.4
259.378	582.23
259.607	581.58
259.836	579.51
260.065	578.56
260.295	578.67
260.524	576.85
260.753	576.71
260.982	575.71
261.211	575.6
261.44	575
261.669	574.94
261.899	574.11
262.128	573.74
262.357	573.58
262.586	572.78
262.815	571.65
263.044	571.89
263.273	573.43
263.502	573.12
263.731	572.54
263.96	571.05
264.189	570.31
264.418	568.56
264.646	567.74
264.875	566.22
265.104	564.72
265.333	564.69
265.562	562.23
265.791	558.6
266.02	557.74
266.249	556.34
266.477	556.11
266.706	555.23
266.935	554.63
267.164	553.71
267.393	554.47
267.621	554.98
267.85	553.09
268.079	554.54
268.307	554.14
268.536	554.22
268.765	553.09
268.993	552.43
269.222	551.76
269.451	552.45
269.679	551.58
269.908	552.83
270.137	551.47
270.365	552.12
270.594	550.62
270.822	550.47
271.051	549.6
271.279	550.65
271.508	551.02
271.736	551.98
271.965	553.03
272.193	554.87
272.422	553.51
272.65	553.8
272.879	554.18
273.107	555.07
273.336	555.12
273.564	553.85
273.792	552.14
274.021	551.14
274.249	548.76
274.477	545.94
274.706	544.27
274.934	543.34
275.162	541.91
275.391	539.92
275.619	538.54
275.847	537.54
276.075	536.78
276.304	536.58
276.532	534.96
276.76	534.62
276.988	534.42
277.216	532.78
277.445	530.8
277.673	529.56
277.901	528.69
278.129	527.47
278.357	527.02
278.585	527.23
278.813	526.52
279.041	526.23
279.269	525.6
279.497	524.25
279.725	523.65
279.954	522.83
280.182	522.6
280.41	521.63
280.637	521.16
280.865	519.87
281.093	520.38
281.321	520.32
281.549	519.56
281.777	519.07
282.005	519.12
282.233	519.49
282.461	519.87
282.689	518.91
282.916	519.18
283.144	518.63
283.372	517.65
283.6	516.67
283.828	515.58
284.055	514.82
284.283	514.87
284.511	514.16
284.739	513.65
284.966	512.11
285.194	512.14
285.422	510.52
285.649	510.03
285.877	508.63
286.105	507.6
286.332	506.14
286.56	506.85
286.788	505.83
287.015	505.4
287.243	503.92
287.47	504.43
287.698	503.89
287.925	504.12
288.153	503.56
288.381	504.74
288.608	503.65
288.836	504.4
289.063	503.03
289.29	503.2
289.518	503.11
289.745	502.52
289.973	502.45
290.2	501.54
290.428	500.71
290.655	501.11
290.882	499.49
291.11	500.18
291.337	499.42
291.564	499.54
291.792	497.54
292.019	497.05
292.246	496.4
292.473	494.96
292.701	494.18
292.928	494.29
293.155	492.94
293.382	493.51
293.61	491.72
293.837	490.45
294.064	489.31
294.291	489.6
294.518	488.74
294.745	488.31
294.972	487.23
295.2	486.62
295.427	486.62
295.654	486.69
295.881	487.05
296.108	486.56
296.335	486.4
296.562	487.03
296.789	486.11
297.016	485.12
297.243	484.82
297.47	484.36
297.697	483.8
297.924	482.98
298.151	481.29
298.378	479.07
298.604	478.76
298.831	477.6
299.058	475.47
299.285	476.05
299.512	475.22
299.739	474.32
299.966	474.54
300.192	474.72
300.419	473.76
300.646	474.02
300.873	473.31
301.099	473.74
301.326	474.25
301.553	475.12
301.78	475
302.006	475.72
302.233	476.34
302.46	475.05
302.686	474.78
302.913	473.76
303.14	473.58
303.366	474.71
303.593	472.96
303.819	471.98
304.046	470.58
304.272	468.4
304.499	468.4
304.725	467.67
304.952	468.31
305.179	467.87
305.405	469.62
305.631	469.05
305.858	467.62
306.084	466.96
306.311	467.63
306.537	468.51
306.764	468.92
306.99	467.42
307.216	467.38
307.443	466.32
307.669	465.31
307.895	462.32
308.122	460.76
308.348	460.58
308.574	461.25
308.801	460.82
309.027	460.4
309.253	461.03
309.479	461.03
309.706	460.76
309.932	461.43
310.158	461.67
310.384	462.65
310.61	463.22
310.837	464.29
311.063	464.32
311.289	462.42
311.515	463.07
311.741	461.36
311.967	461.78
312.193	461.2
312.419	461.72
312.645	461.8
312.871	460.82
313.097	461.76
313.323	460.71
313.549	461.67
313.775	463.89
314.001	462.42
314.227	463.12
314.453	463.25
314.679	463.14
314.905	462.71
315.131	462.92
315.357	464.4
315.583	463.78
315.809	464.18
316.034	464.18
316.26	464.22
316.486	464.6
316.712	464.69
316.938	465.03
317.163	466.82
317.389	466.62
317.615	467.6
317.841	468.22
318.066	468.76
318.292	469.58
318.518	469.58
318.743	469.47
318.969	470.2
319.195	470.42
319.42	471.85
319.646	471.18
319.872	471.92
320.097	472.07
320.323	472.22
320.548	474.2
320.774	475.02
320.999	476.45
321.225	478.51
321.45	480.16
321.676	482.2
321.901	481.78
322.127	483.82
322.352	484.8
322.578	486.47
322.803	487.89
323.029	489.74
323.254	492.34
323.479	493.14
323.705	494.11
323.93	494.78
324.155	496.16
324.381	498.45
324.606	500.78
324.831	503.52
325.057	506
325.282	509.29
325.507	510.47
325.732	511.65
325.958	514.45
326.183	517.34
326.408	520.03
326.633	525.05
326.858	527.58
327.084	529.87
327.309	533.27
327.534	535.34
327.759	538.09
327.984	540.72
328.209	543.85
328.434	546.51
328.659	548.65
328.884	552.34
329.109	553.16
329.334	556.32
329.559	559.67
329.784	562.82
330.009	565.89
330.234	568.78
330.459	572.49
330.684	575.96
330.909	579.91
331.134	583.78
331.359	586.96
331.584	590.63
331.809	595.2
332.034	599.4
332.259	601.72
332.483	607.38
332.708	612.14
332.933	616.2
333.158	619.91
333.383	625.78
333.607	631.34
333.832	636.87
334.057	641.96
334.282	645.92
334.506	650.02
334.731	656.8
334.956	662.78
335.18	667.87
335.405	674.14
335.63	681.14
335.854	684.82
336.079	689.85
336.303	695.89
336.528	700.38
336.753	707.2
336.977	713.56
337.202	719.62
337.426	725.18
337.651	731.62
337.875	737.23
338.1	743.85
338.324	752.03
338.549	759.51
338.773	765.94
338.997	774.42
339.222	782.29
339.446	789.07
339.671	796.65
339.895	804.23
340.119	812.14
340.344	821.05
340.568	827.52
340.792	834.63
341.017	842.58
341.241	851.91
341.465	861.8
341.689	867.76
341.914	878
342.138	885.56
342.362	892.78
342.586	902.02
342.811	909.62
343.035	918.65
343.259	926.76
343.483	934.42
343.707	941.72
343.931	949.63
344.155	960.67
344.38	967.36
344.604	978.16
344.828	987.71
345.052	994.83
345.276	1003.92
345.5	1011.82
345.724	1022.23
345.948	1032
346.172	1042.83
346.396	1051.51
346.62	1059.98
346.844	1072.23
347.068	1081.94
347.292	1091.36
347.515	1101.98
347.739	1113.74
347.963	1125.65
348.187	1134.63
348.411	1146.47
348.635	1157.02
348.859	1169.34
349.082	1180.29
349.306	1189.12
349.53	1198.6
349.754	1210.65
349.977	1220.4
350.201	1230.65
350.425	1241.87
350.649	1254.31
350.872	1264.63
351.096	1274.83
351.32	1285.69
351.543	1298.76
351.767	1311.6
351.99	1321.91
352.214	1332.58
352.438	1346.45
352.661	1358.4
352.885	1370.4
353.108	1380.76
353.332	1390.98
353.555	1401.96
353.779	1414.74
354.002	1426.42
354.226	1439.54
354.449	1454.27
354.673	1465.92
354.896	1476.89
355.12	1490.18
355.343	1502.02
355.566	1514.49
355.79	1529.69
356.013	1543.89
356.237	1555.42
356.46	1567.27
356.683	1577.51
356.907	1587.12
357.13	1601.4
357.353	1613.65
357.576	1623.43
357.8	1638.05
358.023	1651.12
358.246	1661.4
358.469	1673.6
358.693	1685.8
358.916	1697.63
359.139	1710.23
359.362	1721.82
359.585	1734.27
359.808	1748.38
360.031	1763.14
360.255	1773.62
360.478	1787.72
360.701	1802.45
360.924	1814.98
361.147	1828.62
361.37	1842.74
361.593	1856.11
361.816	1872.23
362.039	1886.6
362.262	1902.38
362.485	1916.62
362.708	1929.92
362.931	1942.36
363.154	1958.47
363.377	1970.87
363.599	1985.83
363.822	2000.27
364.045	2017.02
364.268	2031.62
364.491	2046.49
364.714	2059.02
364.936	2072.92
365.159	2089.96
365.382	2104.16
365.605	2116.38
365.828	2134.71
366.05	2150.12
366.273	2164.47
366.496	2178.09
366.718	2195.65
366.941	2210.89
367.164	2226.56
367.386	2242.98
367.609	2257.89
367.832	2276.34
368.054	2293.16
368.277	2308.07
368.5	2322.49
368.722	2336.8
368.945	2351.4
369.167	2365.96
369.39	2382.52
369.612	2398.27
369.835	2414.65
370.057	2431.2
370.28	2445.34
370.502	2462.83
370.725	2478.74
370.947	2498.82
371.169	2516.87
371.392	2535.52
371.614	2553.6
371.837	2569.23
372.059	2587.25
372.281	2604.29
372.504	2619.96
372.726	2637.47
372.948	2652.67
373.171	2669.14
373.393	2683.69
373.615	2702.23
373.837	2721.82
374.06	2737.67
374.282	2756.76
374.504	2777.96
374.726	2795.96
374.948	2815.2
375.17	2836.22
375.393	2856.71
375.615	2878.85
375.837	2896.4
376.059	2915.49
376.281	2932.45
376.503	2953.65
376.725	2973.63
376.947	2988.91
377.169	3008.09
377.391	3030.56
377.613	3051.71
377.835	3072.96
378.057	3095.09
378.279	3117.62
378.501	3140.38
378.723	3163.85
378.945	3188.07
379.167	3208.4
379.389	3231.85
379.611	3254.25
379.833	3275.31
380.054	3298.42
380.276	3322.36
380.498	3344.16
380.72	3368.76
380.942	3393.96
381.163	3419.42
381.385	3442.69
381.607	3466.34
381.829	3489.02
382.05	3518.18
382.272	3543.58
382.494	3567.58
382.716	3593.51
382.937	3617.05
383.159	3644.54
383.381	3670.67
383.602	3695.71
383.824	3722.6
384.045	3749.91
384.267	3779.18
384.488	3804.96
384.71	3832.42
384.932	3859.12
385.153	3884.05
385.375	3913.42
385.596	3939
385.818	3965.22
386.039	3990.87
386.261	4017.6
386.482	4047
386.703	4073.72
386.925	4101.76
387.146	4130.98
387.368	4158.71
387.589	4183.14
387.81	4214.76
388.032	4243.18
388.253	4271.51
388.474	4301.67
388.696	4328.87
388.917	4356.82
389.138	4389.78
389.359	4418.63
389.581	4448.18
389.802	4480.91
390.023	4515.71
390.244	4544.11
390.465	4572.78
390.687	4603.63
390.908	4635.91
391.129	4669.49
391.35	4701.89
391.571	4730.16
391.792	4757.45
392.013	4789.29
392.234	4819.38
392.455	4851.45
392.677	4881.76
392.898	4915.94
393.119	4952.29
393.34	4986.43
393.561	5018.47
393.782	5050.98
394.003	5083.62
394.223	5120.4
394.444	5152.58
394.665	5190
394.886	5224.89
395.107	5259.32
395.328	5296.05
395.549	5323.82
395.77	5358.74
395.99	5394.29
396.211	5429.69
396.432	5467.4
396.653	5498.2
396.874	5532.87
397.094	5561.87
397.315	5593.05
397.536	5627.82
397.757	5663.25
397.977	5703.38
398.198	5734
398.419	5766.91
398.639	5800.09
398.86	5833.49
399.081	5870.27
399.301	5905.74
399.522	5940.89
399.742	5980.78
399.963	6017.2
400.184	6047.34
400.404	6078.47
400.625	6115.03
400.845	6148.67
401.066	6183.43
401.286	6222.38
401.507	6260.36
401.727	6296.25
401.948	6332.47
402.168	6364.76
402.388	6399.45
402.609	6438.45
402.829	6476.74
403.05	6513.42
403.27	6548.27
403.49	6588.34
403.711	6617.62
403.931	6651.54
404.151	6686.43
404.372	6718.8
404.592	6752.71
404.812	6790.16
405.032	6822.56
405.253	6855.8
405.473	6888.72
405.693	6927.36
405.913	6959.43
406.133	6997.11
406.353	7032.27
406.574	7068.16
406.794	7107.54
407.014	7147.58
407.234	7178.27
407.454	7215.72
407.674	7248.56
407.894	7286.91
408.114	7324.09
408.334	7366.36
408.554	7405.16
408.774	7442.42
408.994	7478.94
409.214	7518.31
409.434	7554.62
409.654	7595.12
409.874	7635.52
410.094	7677.54
410.314	7712.54
410.534	7743.89
410.754	7777.32
410.974	7813
411.193	7850.16
411.413	7886.52
411.633	7923.69
411.853	7965.27
412.073	8003.23
412.292	8039.2
412.512	8078.52
412.732	8119.54
412.952	8163.78
413.171	8204.05
413.391	8246.89
413.611	8292.56
413.831	8336.34
414.05	8378.31
414.27	8421.22
414.489	8460.29
414.709	8505.82
414.929	8548.96
415.148	8593.02
415.368	8639.74
415.587	8686.67
415.807	8728.51
416.026	8768.11
416.246	8810.82
416.465	8853.23
416.685	8893.42
416.904	8942.76
417.124	8985.16
417.343	9027.8
417.563	9074.12
417.782	9114.83
418.002	9157.83
418.221	9199.63
418.44	9242.67
418.66	9290.47
418.879	9338.16
419.098	9381.78
419.318	9425.85
419.537	9469.45
419.756	9514.32
419.976	9550.22
420.195	9596.72
420.414	9638.03
420.633	9678.94
420.853	9724.23
421.072	9763.4
421.291	9803.31
421.51	9846.23
421.729	9888.47
421.948	9931.49
422.168	9973.16
422.387	10019.92
422.606	10059.72
422.825	10100.31
423.044	10148
423.263	10191.23
423.482	10238.16
423.701	10282.4
423.92	10325.89
424.139	10369.72
424.358	10414.67
424.577	10459.2
424.796	10504.42
425.015	10551.42
425.234	10600.54
425.453	10649.92
425.672	10695.92
425.891	10740
426.11	10780.74
426.328	10822.09
426.547	10869.51
426.766	10916.25
426.985	10963
427.204	11012.03
427.422	11059.98
427.641	11113.8
427.86	11159.65
428.079	11205.14
428.297	11253.49
428.516	11309.38
428.735	11361.29
428.954	11405.91
429.172	11455.05
429.391	11504.22
429.61	11552.09
429.828	11599.42
430.047	11635.32
430.265	11681.78
430.484	11728.27
430.703	11776.91
430.921	11818.65
431.14	11868.63
431.358	11916.32
431.577	11958.25
431.795	12006.27
432.014	12053.27
432.232	12100.4
432.451	12153.98
432.669	12204.78
432.887	12258.27
433.106	12301.83
433.324	12352.49
433.543	12398.96
433.761	12451.25
433.979	12506.34
434.198	12556.98
434.416	12606.62
434.634	12651.76
434.853	12699.45
435.071	12743.67
435.289	12789.56
435.507	12840.09
435.726	12886.98
435.944	12930.94
436.162	12974.69
436.38	13012.94
436.598	13053.89
436.817	13092.78
437.035	13140.65
437.253	13183.07
437.471	13231.6
437.689	13279.85
437.907	13326.71
438.125	13374.98
438.343	13423.11
438.561	13470.22
438.78	13524.6
438.998	13570.43
439.216	13623.49
439.434	13673.74
439.652	13726.23
439.869	13770.49
440.087	13816.96
440.305	13864.94
440.523	13914.98
440.741	13966.03
440.959	14010.94
441.177	14058.47
441.395	14112.67
441.613	14166.16
441.831	14210.29
442.048	14260.94
442.266	14310.56
442.484	14362.8
442.702	14409.05
442.919	14456.4
443.137	14502
443.355	14550.8
443.573	14599.58
443.79	14645.82
444.008	14693.74
444.226	14740.91
444.443	14786.18
444.661	14833.34
444.879	14879.4
445.096	14926.85
445.314	14977.36
445.532	15028.71
445.749	15081.51
445.967	15136.07
446.184	15186.36
446.402	15223.98
446.619	15274.29
446.837	15319.8
447.054	15370.89
447.272	15417.16
447.489	15464.09
447.707	15504.23
447.924	15548.18
448.141	15601.52
448.359	15642.92
448.576	15696
448.794	15754.11
449.011	15805.43
449.228	15857.36
449.446	15895.83
449.663	15940.36
449.88	15986.76
450.098	16044.82
450.315	16095.4
450.532	16138.58
450.749	16187.62
450.967	16229.36
451.184	16275.31
451.401	16324.14
451.618	16368.6
451.835	16426.83
452.052	16477.31
452.27	16526.4
452.487	16569.76
452.704	16620.47
452.921	16670.05
453.138	16716.47
453.355	16763.16
453.572	16810.12
453.789	16853.18
454.006	16906
454.223	16952.07
454.44	17000.47
454.657	17053.65
454.874	17101.87
455.091	17148.63
455.308	17194.18
455.525	17242.71
455.742	17289.03
455.959	17342.82
456.176	17389.02
456.393	17427.36
456.609	17473.71
456.826	17523.54
457.043	17569.2
457.26	17617.74
457.477	17657.14
457.693	17700.76
457.91	17742.36
458.127	17792.18
458.344	17831.34
458.56	17881.98
458.777	17923.76
458.994	17966.03
459.21	17998.09
459.427	18031.42
459.644	18064.78
459.86	18105.96
460.077	18142.18
460.294	18182.85
460.51	18216.22
460.727	18251.83
460.943	18281.03
461.16	18319.43
461.376	18355.6
461.593	18398.4
461.809	18443.89
462.026	18483.91
462.242	18524.96
462.459	18561.98
462.675	18600.82
462.892	18633.12
463.108	18667.85
463.324	18714.63
463.541	18761.27
463.757	18804.71
463.974	18841.45
464.19	18881.36
464.406	18925.76
464.623	18976.52
464.839	19032.94
465.055	19075.14
465.271	19136.56
465.488	19193.22
465.704	19238
465.92	19285.47
466.136	19334.89
466.353	19390.34
466.569	19443.43
466.785	19496.52
467.001	19545.51
467.217	19598.49
467.433	19656.47
467.649	19708.34
467.865	19761.63
468.082	19821.49
468.298	19889.43
468.514	19954.51
468.73	20022.72
468.946	20085.22
469.162	20151.4
469.378	20214.2
469.594	20269.22
469.81	20332.83
470.026	20396.65
470.242	20463.49
470.457	20529.16
470.673	20588.51
470.889	20660.27
471.105	20719.89
471.321	20786.83
471.537	20858.38
471.753	20926.22
471.968	20997.56
472.184	21070.65
472.4	21149.31
472.616	21221.47
472.832	21296.25
473.047	21372.07
473.263	21439.02
473.479	21512.82
473.694	21584.65
473.91	21655.58
474.126	21728.63
474.341	21808.92
474.557	21884.98
474.773	21943.2
474.988	22007.69
475.204	22080.25
475.42	22147.76
475.635	22213.32
475.851	22286.54
476.066	22360.71
476.282	22435.05
476.497	22502.32
476.713	22570.22
476.928	22631.43
477.144	22703.67
477.359	22768.65
477.575	22833.14
477.79	22901.31
478.005	22963.6
478.221	23017.23
478.436	23078.92
478.651	23130.27
478.867	23196.83
479.082	23252.71
479.297	23314.16
479.513	23368.82
479.728	23421.14
479.943	23469.29
480.159	23514.87
480.374	23570.69
480.589	23627.94
480.804	23686.92
481.019	23737.23
481.235	23780.63
481.45	23827.18
481.665	23875.18
481.88	23929.02
482.095	23990.91
482.31	24049.91
482.525	24106.27
482.741	24157.76
482.956	24200.98
483.171	24244.82
483.386	24298.91
483.601	24345.47
483.816	24397.45
484.031	24443.62
484.246	24491.62
484.461	24541.27
484.676	24578.27
484.891	24617.31
485.105	24660.11
485.32	24716.03
485.535	24760.29
485.75	24799.36
485.965	24852.07
486.18	24886.94
486.395	24934.65
486.609	24971.51
486.824	25012.6
487.039	25057.43
487.254	25098.32
487.469	25141.16
487.683	25178.71
487.898	25209.38
488.113	25242.12
488.327	25277.52
488.542	25324.45
488.757	25363.63
488.972	25407.51
489.186	25434.92
489.401	25470.22
489.615	25509.74
489.83	25540.71
490.045	25580.11
490.259	25619.76
490.474	25655.98
490.688	25690.23
490.903	25711.49
491.117	25740.38
491.332	25767.98
491.546	25804.29
491.761	25836.63
491.975	25865.27
492.19	25891.72
492.404	25921.31
492.618	25953.63
492.833	25988.83
493.047	26016.09
493.262	26052.32
493.476	26075.92
493.69	26104.4
493.905	26131.63
494.119	26165.91
494.333	26192.4
494.547	26230.45
494.762	26256.58
494.976	26279.62
495.19	26298.8
495.404	26331.74
495.619	26369.05
495.833	26392.58
496.047	26419.05
496.261	26436.94
496.475	26447
496.689	26455.12
496.903	26460.34
497.117	26465.4
497.332	26466.82
497.546	26463.74
497.76	26441.87
497.974	26422.89
498.188	26416.98
498.402	26407.49
498.616	26396.78
498.83	26375.96
499.044	26376.8
499.258	26367.76
499.472	26366.92
499.685	26370.36
499.899	26378.12
500.113	26401.92
500.327	26412.71
500.541	26431.71
500.755	26443.05
500.969	26460.94
501.183	26489.45
501.396	26512.74
501.61	26536.94
501.824	26555.14
502.038	26574.14
502.251	26603.03
502.465	26619.62
502.679	26636.91
502.892	26655.43
503.106	26676.2
503.32	26694.56
503.533	26715.54
503.747	26730.42
503.961	26750.43
504.174	26775.56
504.388	26798.36
504.602	26816.85
504.815	26844.58
505.029	26881.47
505.242	26917.96
505.456	26963.43
505.669	27007.07
505.883	27066.45
506.096	27119.09
506.31	27170.32
506.523	27225.87
506.736	27290.14
506.95	27355.54
507.163	27415.23
507.377	27472.4
507.59	27530.25
507.803	27582.25
508.017	27645.29
508.23	27699.45
508.443	27762.31
508.657	27826.76
508.87	27885.34
509.083	27955.51
509.296	28023.4
509.51	28099.58
509.723	28180.25
509.936	28260.65
510.149	28344.42
510.363	28435.54
510.576	28517.62
510.789	28601.25
511.002	28705.83
511.215	28818.23
511.428	28921.78
511.641	29023
511.854	29120.16
512.067	29215.62
512.28	29317
512.493	29421.82
512.707	29526.8
512.92	29634.8
513.132	29743.07
513.345	29839.82
513.558	29933
513.771	30029.74
513.984	30132.4
514.197	30246.69
514.41	30351.52
514.623	30461.23
514.836	30568.62
515.049	30672.29
515.262	30785.54
515.474	30886.05
515.687	30989.91
515.9	31086.74
516.113	31187.18
516.325	31287.62
516.538	31372.45
516.751	31480.47
516.964	31566.74
517.176	31655.02
517.389	31743.36
517.602	31828.11
517.814	31922.4
518.027	32012.29
518.24	32100.42
518.452	32175.62
518.665	32258.12
518.877	32336.32
519.09	32404.11
519.303	32475.25
519.515	32557.76
519.728	32626
519.94	32686.32
520.153	32750.69
520.365	32811.31
520.578	32883.05
520.79	32957.05
521.002	33019.38
521.215	33082.52
521.427	33150.2
521.64	33206.78
521.852	33243.54
522.064	33297.58
522.277	33361.34
522.489	33417.32
522.701	33473.38
522.914	33521.31
523.126	33565.23
523.338	33602.52
523.551	33650.42
523.763	33695.67
523.975	33750.83
524.187	33811.23
524.399	33857.65
524.612	33897.38
524.824	33936.67
525.036	33988.62
525.248	34029.2
525.46	34069.38
525.672	34121.78
525.884	34167.6
526.096	34197.52
526.308	34236.38
526.521	34267.43
526.733	34308.2
526.945	34345.09
527.157	34384.36
527.369	34409.54
527.581	34444.25
527.793	34480.82
528.004	34518.11
528.216	34539.09
528.428	34570.43
528.64	34596.87
528.852	34630.09
529.064	34655.27
529.276	34673.31
529.488	34700.03
529.699	34719.2
529.911	34739.52
530.123	34766.23
530.335	34790.42
530.547	34822.25
530.758	34851.36
530.97	34887.12
531.182	34916.62
531.393	34955.67
531.605	35001.98
531.817	35038.91
532.029	35087.98
532.24	35115.03
532.452	35141.91
532.663	35152.31
532.875	35184.62
533.087	35208.22
533.298	35229.96
533.51	35246.69
533.721	35264.82
533.933	35277.6
534.144	35292.07
534.356	35295.78
534.567	35312.34
534.779	35329.25
534.99	35354.76
535.202	35380.09
535.413	35403.25
535.624	35413.74
535.836	35448.91
536.047	35459.03
536.259	35487.14
536.47	35508.56
536.681	35521.45
536.893	35544.14
537.104	35561.07
537.315	35564.98
537.526	35571.69
537.738	35591.72
537.949	35617.91
538.16	35626.22
538.371	35642.72
538.582	35643.67
538.794	35656.71
539.005	35671.92
539.216	35699.96
539.427	35725.6
539.638	35762.58
539.849	35777.62
540.06	35785.8
540.272	35802.16
540.483	35817.29
540.694	35843.47
540.905	35863.32
541.116	35883.14
541.327	35902.72
541.538	35903.71
541.749	35914.31
541.96	35920.74
542.17	35934.82
542.381	35951.05
542.592	35949.54
542.803	35958.43
543.014	35959.18
543.225	35962.16
543.436	35965.43
543.647	35970.69
543.857	35982.14
544.068	35984.25
544.279	35997.2
544.49	36008.14
544.701	36019.62
544.911	36043.32
545.122	36054.29
545.333	36061.23
545.543	36076.6
545.754	36084.51
545.965	36097.87
546.175	36107.12
546.386	36114.49
546.597	36119.69
546.807	36127.02
547.018	36142.83
547.229	36140.85
547.439	36146.58
547.65	36161.42
547.86	36172.87
548.071	36184.36
548.281	36190.49
548.492	36200.02
548.702	36206.47
548.913	36214.56
549.123	36219.92
549.333	36224.22
549.544	36233.63
549.754	36237.6
549.965	36247.51
550.175	36266.71
550.385	36287.74
550.596	36301.63
550.806	36317.69
551.016	36336.85
551.227	36350.72
551.437	36367.11
551.647	36369.54
551.857	36392.12
552.068	36419.05
552.278	36429.63
552.488	36428.42
552.698	36427.91
552.908	36436
553.119	36433.23
553.329	36432.58
553.539	36445.34
553.749	36448.85
553.959	36459.42
554.169	36447.34
554.379	36438.4
554.589	36444.83
554.799	36452.03
555.009	36461.36
555.219	36462.62
555.429	36473.71
555.639	36480.69
555.849	36480.32
556.059	36481.02
556.269	36476.02
556.479	36484.8
556.689	36480.56
556.899	36486.82
557.109	36478.47
557.319	36480.12
557.528	36483.27
557.738	36476.07
557.948	36475.22
558.158	36473.23
558.368	36461.43
558.577	36458.74
558.787	36451.29
558.997	36448.23
559.207	36432.76
559.416	36427.92
559.626	36411.67
559.836	36393.23
560.045	36393.49
560.255	36393.82
560.465	36377
560.674	36382.62
560.884	36391.82
561.093	36394.83
561.303	36397.82
561.512	36393.23
561.722	36403.12
561.932	36402.89
562.141	36411.07
562.351	36409.43
562.56	36396.58
562.769	36421.23
562.979	36414.32
563.188	36401.89
563.398	36401.12
563.607	36409.31
563.817	36404.74
564.026	36407.14
564.235	36397.65
564.445	36395.91
564.654	36394.51
564.863	36394.11
565.073	36375.94
565.282	36381.89
565.491	36381.87
565.7	36372.91
565.91	36357.58
566.119	36366.2
566.328	36341.32
566.537	36330.72
566.746	36322.4
566.956	36305.8
567.165	36296.03
567.374	36294.45
567.583	36285.16
567.792	36270.74
568.001	36258.87
568.21	36234.63
568.419	36198.34
568.628	36172.91
568.837	36157.54
569.046	36130.74
569.255	36106.09
569.464	36075.51
569.673	36040.96
569.882	36008.23
570.091	35983.12
570.3	35961.45
570.509	35954.67
570.718	35945.11
570.927	35952.34
571.135	35946.98
571.344	35945.25
571.553	35950.85
571.762	35960.05
571.971	35958
572.18	35961.38
572.388	35946.47
572.597	35940
572.806	35928.74
573.014	35916.6
573.223	35894.54
573.432	35869.71
573.641	35847.23
573.849	35812.22
574.058	35786.02
574.266	35764.87
574.475	35733.22
574.684	35730.69
574.892	35717.69
575.101	35705.65
575.309	35696.51
575.518	35683.94
575.726	35668.69
575.935	35661.25
576.143	35652.51
576.352	35637.23
576.56	35620.16
576.769	35609.18
576.977	35586.03
577.186	35570.85
577.394	35547.8
577.602	35523.38
577.811	35501.31
578.019	35493.47
578.228	35477.87
578.436	35465.78
578.644	35446.67
578.852	35423.18
579.061	35404.69
579.269	35393.23
579.477	35366.6
579.685	35348.87
579.894	35329.52
580.102	35313.22
580.31	35291.94
580.518	35272.72
580.726	35259.32
580.935	35243.11
581.143	35221.03
581.351	35197.85
581.559	35172.22
581.767	35153.87
581.975	35129.47
582.183	35110.92
582.391	35099.63
582.599	35079.71
582.807	35057.23
583.015	35033.71
583.223	35012.67
583.431	35000.05
583.639	34983.45
583.847	34968.63
584.055	34947.12
584.263	34936.09
584.471	34920.82
584.678	34887.91
584.886	34868
585.094	34842.96
585.302	34816.78
585.51	34801.76
585.718	34779.98
585.925	34767.27
586.133	34740.32
586.341	34720.56
586.549	34694.72
586.756	34675
586.964	34648.52
587.172	34629.82
587.379	34603.29
587.587	34583.94
587.795	34557.89
588.002	34532.25
588.21	34506.32
588.417	34479.76
588.625	34460.36
588.833	34437.65
589.04	34411.76
589.248	34399.98
589.455	34378.74
589.663	34359.87
589.87	34341.29
590.078	34316.58
590.285	34302.54
590.492	34271.54
590.7	34257.65
590.907	34228.89
591.115	34207.72
591.322	34186.22
591.529	34163.47
591.737	34135.51
591.944	34111.72
592.151	34084.47
592.359	34061.54
592.566	34022.65
592.773	33996.89
592.981	33962.98
593.188	33936.11
593.395	33914.92
593.602	33891.02
593.809	33862.65
594.017	33847.69
594.224	33828.98
594.431	33800.4
594.638	33766.67
594.845	33747.23
595.052	33711.43
595.259	33688.72
595.466	33664.42
595.673	33632.78
595.88	33612.31
596.088	33587.34
596.295	33548.89
596.502	33525.92
596.709	33505.34
596.915	33494.91
597.122	33472.63
597.329	33465.11
597.536	33444.43
597.743	33433.8
597.95	33416.56
598.157	33371.18
598.364	33340.45
598.571	33305.18
598.777	33253.45
598.984	33208.58
599.191	33151.62
599.398	33112.11
599.605	33064.03
599.811	33014.34
600.018	32949.87
600.225	32889.03
600.431	32848.36
600.638	32805.38
600.845	32777.03
601.052	32758.72
601.258	32728.8
601.465	32686.31
601.671	32623.65
601.878	32558.94
602.085	32477.94
602.291	32380.43
602.498	32266.16
602.704	32144.69
602.911	31977.31
603.117	31786.42
603.324	31568.38
603.53	31344.52
603.737	31114.82
603.943	30883.58
604.15	30645.09
604.356	30396.02
604.562	30133.96
604.769	29870.34
604.975	29596.02
605.181	29341.62
605.388	29080.85
605.594	28824.45
605.8	28561.8
606.007	28303.16
606.213	28038.94
606.419	27759.63
606.625	27483.4
606.832	27221.2
607.038	26959.45
607.244	26695.65
607.45	26431.78
607.656	26166.22
607.863	25890.92
608.069	25619.14
608.275	25335.12
608.481	25048.98
608.687	24767.12
608.893	24487.65
609.099	24210.63
609.305	23920.16
609.511	23624.94
609.717	23321.63
609.923	23022.65
610.129	22728.89
610.335	22419.78
610.541	22123.42
610.747	21819.09
610.953	21513.43
611.159	21202.45
611.365	20884.18
611.571	20568.76
611.776	20260.34
611.982	19940.8
612.188	19622.43
612.394	19297.94
612.6	18977.36
612.806	18649.05
613.011	18328.87
613.217	18000.31
613.423	17679.8
613.628	17362.87
613.834	17051.83
614.04	16730.09
614.246	16427.38
614.451	16121.32
614.657	15828.02
614.862	15540.05
615.068	15259.91
615.274	14979.05
615.479	14715.18
615.685	14450.67
615.89	14191.31
616.096	13930.85
616.301	13674.49
616.507	13420.23
616.712	13161.25
616.918	12894.51
617.123	12625.78
617.329	12353.12
617.534	12081.69
617.74	11801.69
617.945	11526.36
618.15	11223.83
618.356	10747.94
618.561	9885.29
618.766	8836.54
618.972	7760.94
619.177	6714.62
619.382	5694.2
619.588	4702.49
619.793	4106.41
619.998	3412.92
620.203	2573.08
620.408	1563.4
620.614	583.63
