Data from test1_MAYP1115451__25__10-14-46-311.txt Node

Date: Wed Jun 12 10:14:46 MDT 2024
User: Modes Lab
Spectrometer: MAYP111545
Trigger mode: 0
Integration Time (sec): 8.000000E-3
Scans to average: 5
Electric dark correction enabled: true
Nonlinearity correction enabled: false
Boxcar width: 5
XAxis mode: Wavelengths
Number of Pixels in Spectrum: 2068
>>>>>Begin Spectral Data<<<<<
165.214	163.83
165.449	163.55
165.683	172.37
165.918	182.38
166.152	188.39
166.387	193.59
166.621	124.74
166.856	163.27
167.09	182.38
167.325	205.78
167.559	222.45
167.794	236.74
168.028	244.83
168.263	245.68
168.497	244.59
168.732	245.88
168.966	246.9
169.2	249.43
169.435	250.83
169.669	251.5
169.903	253.03
170.138	254.3
170.372	256.08
170.606	256.85
170.841	258.96
171.075	261.18
171.309	262.79
171.544	264.07
171.778	266.38
172.012	268.05
172.246	270.07
172.48	271.92
172.715	274.39
172.949	275.87
173.183	277.39
173.417	278.21
173.651	279.34
173.885	280.01
174.119	281.05
174.354	281.41
174.588	281.38
174.822	281.83
175.056	280.63
175.29	280.39
175.524	280.67
175.758	281.74
175.992	283.08
176.226	283.47
176.46	285.48
176.694	285.58
176.928	285.96
177.162	287.92
177.396	288.12
177.63	290.5
177.864	291.32
178.097	292.19
178.331	293.18
178.565	293.54
178.799	294.16
179.033	293.21
179.267	293.78
179.5	294.52
179.734	294.52
179.968	296.28
180.202	296.9
180.436	296.96
180.669	298.16
180.903	298.9
181.137	300.12
181.371	301.67
181.604	303.18
181.838	305.19
182.072	305.92
182.305	306.41
182.539	306.67
182.772	307.5
183.006	309.98
183.24	309.54
183.473	313.48
183.707	314.38
183.94	314.9
184.174	315.96
184.408	316.88
184.641	318.18
184.875	319.94
185.108	321.1
185.342	322.54
185.575	322.56
185.808	325.23
186.042	324.05
186.275	325.14
186.509	325.74
186.742	327.9
186.976	328.21
187.209	329.72
187.442	331.03
187.676	332.96
187.909	334.07
188.142	335.92
188.376	337.19
188.609	338.08
188.842	339.83
189.076	342.36
189.309	342.47
189.542	345.18
189.775	346.65
190.009	348.56
190.242	350.94
190.475	352.52
190.708	354.12
190.941	356.56
191.174	358.92
191.408	360.43
191.641	362.58
191.874	365.01
192.107	367.28
192.34	369.99
192.573	371.72
192.806	372.79
193.039	375.45
193.272	378.63
193.505	380.12
193.738	381.39
193.971	383.25
194.204	385.05
194.437	386.94
194.67	387.7
194.903	388.76
195.136	389.98
195.369	391.48
195.602	392.94
195.835	394.36
196.068	396.12
196.301	397.74
196.533	399.74
196.766	400.81
196.999	402.36
197.232	405.38
197.465	406.98
197.698	410.43
197.93	412.98
198.163	414.21
198.396	416.47
198.629	418.52
198.861	419.76
199.094	421.65
199.327	423.74
199.559	425.39
199.792	427.39
200.025	429.48
200.257	430.9
200.49	433.36
200.723	435.34
200.955	437.54
201.188	439.05
201.42	442.79
201.653	444.67
201.886	447.3
202.118	450.61
202.351	452.16
202.583	455.76
202.816	457.88
203.048	459.72
203.281	462.87
203.513	463.61
203.745	466.74
203.978	468.67
204.21	471.47
204.443	473.48
204.675	475.76
204.907	477.83
205.14	479.47
205.372	481.68
205.605	483.76
205.837	486.45
206.069	489.7
206.302	491.83
206.534	494.28
206.766	497.54
206.998	500.63
207.231	503.12
207.463	506.47
207.695	508.59
207.927	512.01
208.159	515.74
208.392	517.08
208.624	520.16
208.856	522.19
209.088	523.32
209.32	524.18
209.552	525.81
209.784	527.87
210.017	529.9
210.249	531.36
210.481	532.85
210.713	534.45
210.945	536.7
211.177	538.74
211.409	540.39
211.641	542.7
211.873	545.68
212.105	547.45
212.337	549.41
212.569	550.78
212.801	553.03
213.033	554.59
213.264	554.47
213.496	557.38
213.728	558.7
213.96	560.5
214.192	562.56
214.424	564.76
214.656	567.25
214.887	568.7
215.119	570.34
215.351	572.9
215.583	573.5
215.815	578.32
216.046	578.36
216.278	579.39
216.51	581.03
216.741	582.61
216.973	584.08
217.205	585.81
217.436	587.25
217.668	590.98
217.9	592.48
218.131	593.81
218.363	593.14
218.595	595.63
218.826	597.38
219.058	598.79
219.289	600.99
219.521	601.63
219.752	602.48
219.984	603.23
220.215	602.61
220.447	602.58
220.678	604.76
220.91	605.88
221.141	606.56
221.373	608.03
221.604	609.65
221.836	610.05
222.067	611.98
222.298	612.78
222.53	614.81
222.761	615.56
222.993	617.03
223.224	618.12
223.455	619.81
223.686	620.78
223.918	621.14
224.149	622.1
224.38	622.7
224.612	623.74
224.843	623.87
225.074	623.32
225.305	624.38
225.536	625.1
225.768	626.23
225.999	626.76
226.23	628.07
226.461	629.03
226.692	629.61
226.923	630.63
227.155	632.59
227.386	634.83
227.617	635.56
227.848	636.32
228.079	637.76
228.31	638.14
228.541	639.65
228.772	640.12
229.003	640.43
229.234	640.19
229.465	639.48
229.696	636.03
229.927	634.58
230.158	634.72
230.389	634.12
230.62	634.28
230.85	634.43
231.081	633.72
231.312	632.92
231.543	632.21
231.774	632.05
232.005	633.87
232.236	635.36
232.466	636.03
232.697	637.01
232.928	638.52
233.159	638.08
233.389	639.67
233.62	640.25
233.851	640.38
234.082	640.47
234.312	641.96
234.543	641.41
234.774	641.48
235.004	641.32
235.235	640.99
235.466	639.88
235.696	639.99
235.927	638.92
236.157	638.72
236.388	639.56
236.618	640.08
236.849	638.38
237.08	638.38
237.31	637.74
237.541	638.08
237.771	638.23
238.002	638.52
238.232	637.21
238.463	636.01
238.693	634.7
238.923	633.88
239.154	633.43
239.384	632.99
239.615	631.83
239.845	631.34
240.075	630.58
240.306	628.65
240.536	627.76
240.766	628.27
240.997	628.07
241.227	628.72
241.457	627.94
241.687	627.18
241.918	627.05
242.148	625.52
242.378	624.47
242.608	623.21
242.839	623.98
243.069	622.48
243.299	621.83
243.529	622.43
243.759	621.16
243.989	620.5
244.22	621.59
244.45	620.79
244.68	622.68
244.91	621.99
245.14	621.34
245.37	621.61
245.6	622.85
245.83	621.39
246.06	619.67
246.29	619.38
246.52	619.32
246.75	618.68
246.98	618.59
247.21	617.08
247.44	617.28
247.67	616.45
247.9	615.25
248.13	613.43
248.359	613.81
248.589	612.85
248.819	610.96
249.049	610.1
249.279	608.9
249.509	608.85
249.738	609.16
249.968	609.43
250.198	608.54
250.428	608.3
250.657	607.47
250.887	606.83
251.117	607.05
251.347	607.36
251.576	607.52
251.806	605.79
252.036	605.32
252.265	604.92
252.495	603.72
252.725	604.34
252.954	602.76
253.184	602.81
253.413	602.63
253.643	602.39
253.873	601.47
254.102	600.3
254.332	599.52
254.561	598.41
254.791	596.85
255.02	597.08
255.25	596.25
255.479	595.7
255.708	595.16
255.938	594.45
256.167	592.72
256.397	592.56
256.626	593.21
256.856	594.28
257.085	594.28
257.314	594.61
257.544	593.16
257.773	593.19
258.002	592.92
258.232	592.38
258.461	590.72
258.69	590.88
258.919	590.61
259.149	589.23
259.378	588.79
259.607	587.27
259.836	585.32
260.065	585.16
260.295	583.54
260.524	583.28
260.753	583.67
260.982	583.5
261.211	582.45
261.44	581.41
261.669	579.68
261.899	577.81
262.128	577.1
262.357	577.32
262.586	576.07
262.815	575.74
263.044	574.96
263.273	576.47
263.502	575.61
263.731	574.05
263.96	572.63
264.189	571.43
264.418	570.08
264.646	568.85
264.875	566.56
265.104	565.5
265.333	563.96
265.562	561.65
265.791	557.1
266.02	556.3
266.249	555.19
266.477	554.45
266.706	554.3
266.935	554.5
267.164	554.52
267.393	553.59
267.621	552.59
267.85	552.48
268.079	552.92
268.307	552.38
268.536	551.61
268.765	551.81
268.993	550.18
269.222	549.87
269.451	548.59
269.679	548.38
269.908	549.19
270.137	549.03
270.365	548.45
270.594	547.27
270.822	547.27
271.051	548.45
271.279	548.68
271.508	549.5
271.736	550.78
271.965	551.25
272.193	550.65
272.422	551.05
272.65	550.34
272.879	551.32
273.107	551.88
273.336	552.5
273.564	551.48
273.792	549.63
274.021	548.96
274.249	545.78
274.477	544.7
274.706	542.98
274.934	541.07
275.162	540.68
275.391	539.5
275.619	538.1
275.847	536.63
276.075	535.47
276.304	535.99
276.532	535.32
276.76	534.98
276.988	533.7
277.216	534.27
277.445	533.07
277.673	533.28
277.901	532.68
278.129	532.88
278.357	531.12
278.585	529.19
278.813	529.28
279.041	528.5
279.269	527.1
279.497	527.28
279.725	525.54
279.954	525.67
280.182	523.65
280.41	523.81
280.637	522.78
280.865	523.21
281.093	522.83
281.321	520.94
281.549	520.43
281.777	520.7
282.005	518.94
282.233	519.88
282.461	519.21
282.689	520.05
282.916	517.72
283.144	516.18
283.372	515.19
283.6	515.59
283.828	514.74
284.055	514.87
284.283	515.63
284.511	516.39
284.739	515.99
284.966	515.18
285.194	513.67
285.422	513.32
285.649	513.41
285.877	512.5
286.105	511.07
286.332	511.01
286.56	510.68
286.788	509.27
287.015	509.08
287.243	507.92
287.47	508.1
287.698	508.18
287.925	507.54
288.153	506.56
288.381	506.23
288.608	505.99
288.836	505.61
289.063	504.83
289.29	505.12
289.518	504.12
289.745	503.32
289.973	502.41
290.2	502.47
290.428	502.1
290.655	503.03
290.882	503.01
291.11	502.01
291.337	500.87
291.564	499.48
291.792	498.28
292.019	497.63
292.246	496.43
292.473	495.98
292.701	494.47
292.928	493.58
293.155	491.54
293.382	489.67
293.61	490.85
293.837	489.74
294.064	489.67
294.291	488.9
294.518	488.65
294.745	489.96
294.972	489.3
295.2	488.65
295.427	489.07
295.654	489.34
295.881	488.88
296.108	487.12
296.335	487.56
296.562	487.98
296.789	486.43
297.016	486.41
297.243	484.36
297.47	483.59
297.697	482.96
297.924	481.34
298.151	479.92
298.378	479.68
298.604	478.88
298.831	478.01
299.058	476.81
299.285	476.94
299.512	474.19
299.739	473.59
299.966	473.41
300.192	472.18
300.419	471.88
300.646	471.58
300.873	471.54
301.099	471.81
301.326	471.18
301.553	470.21
301.78	471.07
302.006	471.74
302.233	470.99
302.46	470.32
302.686	471.07
302.913	470.12
303.14	470.47
303.366	470.36
303.593	469.85
303.819	469.92
304.046	469.56
304.272	468.79
304.499	468.54
304.725	468.61
304.952	468.19
305.179	467.1
305.405	468.21
305.631	468.18
305.858	467.79
306.084	466.65
306.311	466.52
306.537	466.12
306.764	465.32
306.99	464.88
307.216	464.79
307.443	464.59
307.669	465.58
307.895	463.92
308.122	461.96
308.348	461.27
308.574	461.45
308.801	460.99
309.027	461.27
309.253	460.48
309.479	461.12
309.706	460.67
309.932	459.98
310.158	459.39
310.384	459.7
310.61	461.61
310.837	461.41
311.063	460.78
311.289	459.92
311.515	459.76
311.741	459.39
311.967	458.99
312.193	459.58
312.419	460.56
312.645	459.25
312.871	459.27
313.097	458.68
313.323	459.36
313.549	460.72
313.775	461.7
314.001	461.12
314.227	462.61
314.453	462.45
314.679	462.56
314.905	461.3
315.131	462.19
315.357	463.34
315.583	463.65
315.809	463.12
316.034	463.16
316.26	463.78
316.486	464.27
316.712	463.92
316.938	464.01
317.163	464.27
317.389	464.54
317.615	466.56
317.841	466.1
318.066	466.88
318.292	467.92
318.518	467.48
318.743	467.48
318.969	469.19
319.195	470.23
319.42	470.19
319.646	470.68
319.872	472.76
320.097	472.74
320.323	473.32
320.548	474.3
320.774	476.32
320.999	477.87
321.225	478.58
321.45	479.21
321.676	480.08
321.901	482.21
322.127	483.59
322.352	483.85
322.578	485.74
322.803	488.61
323.029	489.47
323.254	489.3
323.479	490.74
323.705	492.14
323.93	494.1
324.155	496.92
324.381	498.27
324.606	500.79
324.831	504.48
325.057	506.25
325.282	508.28
325.507	509.96
325.732	513.45
325.958	516.3
326.183	519.28
326.408	521.43
326.633	524.63
326.858	527.99
327.084	529.67
327.309	531.54
327.534	535.05
327.759	537.96
327.984	542.21
328.209	545.3
328.434	548.05
328.659	551.7
328.884	554.56
329.109	555.78
329.334	559.03
329.559	563.76
329.784	566.45
330.009	568.32
330.234	571.28
330.459	574.61
330.684	577.78
330.909	582.3
331.134	585.81
331.359	589.16
331.584	593.78
331.809	598.01
332.034	600.72
332.259	606.14
332.483	610.96
332.708	614.58
332.933	618.7
333.158	622.25
333.383	625.96
333.607	631.27
333.832	637.39
334.057	642.76
334.282	647.98
334.506	653.85
334.731	658.47
334.956	663.63
335.18	670.19
335.405	676.87
335.63	682.99
335.854	688.45
336.079	692.85
336.303	697.25
336.528	702.7
336.753	707.58
336.977	713.74
337.202	719.87
337.426	725.59
337.651	731.07
337.875	737.21
338.1	743.79
338.324	751.54
338.549	759.34
338.773	768.1
338.997	774.72
339.222	781.98
339.446	788.5
339.671	796.1
339.895	804.32
340.119	813.03
340.344	819.79
340.568	827.79
340.792	835.39
341.017	843.78
341.241	850.79
341.465	858.68
341.689	867.18
341.914	875.34
342.138	881.5
342.362	889.83
342.586	895.88
342.811	904.5
343.035	914.34
343.259	922.1
343.483	930.01
343.707	938.39
343.931	947.65
344.155	956.32
344.38	965.1
344.604	976.76
344.828	985.68
345.052	995.36
345.276	1004.9
345.5	1013.59
345.724	1024.92
345.948	1034.67
346.172	1046.1
346.396	1055.28
346.62	1066.56
346.844	1078.9
347.068	1088.23
347.292	1099.12
347.515	1110.01
347.739	1120.5
347.963	1128.98
348.187	1138.45
348.411	1148.94
348.635	1158.45
348.859	1170.5
349.082	1181.39
349.306	1190.32
349.53	1201.7
349.754	1211.63
349.977	1222.61
350.201	1232.58
350.425	1246.18
350.649	1257.61
350.872	1270.32
351.096	1281.18
351.32	1292.14
351.543	1302.5
351.767	1312.36
351.99	1323.7
352.214	1334.96
352.438	1345.99
352.661	1359.43
352.885	1367.5
353.108	1379.07
353.332	1388.67
353.555	1401.96
353.779	1413.79
354.002	1424.68
354.226	1438.12
354.449	1450.34
354.673	1463.01
354.896	1475.14
355.12	1486.61
355.343	1500.39
355.566	1512.14
355.79	1524.14
356.013	1536.58
356.237	1548.05
356.46	1560.96
356.683	1572.07
356.907	1583.39
357.13	1595.28
357.353	1608.03
357.576	1621.61
357.8	1633.87
358.023	1645.83
358.246	1659.39
358.469	1671.36
358.693	1684.87
358.916	1698.21
359.139	1713.85
359.362	1728.65
359.585	1740.5
359.808	1752.98
360.031	1764.18
360.255	1779.01
360.478	1793.56
360.701	1808.18
360.924	1819.94
361.147	1832.47
361.37	1847.16
361.593	1859.9
361.816	1874.7
362.039	1890.25
362.262	1905.72
362.485	1917.83
362.708	1932.18
362.931	1946.58
363.154	1958.98
363.377	1974.16
363.599	1988.25
363.822	2002.32
364.045	2013.94
364.268	2026.54
364.491	2041.39
364.714	2055.27
364.936	2071.68
365.159	2085.58
365.382	2100.47
365.605	2118.7
365.828	2138.56
366.05	2154.78
366.273	2166.96
366.496	2184.54
366.718	2200.9
366.941	2215.67
367.164	2233.14
367.386	2248.48
367.609	2263.79
367.832	2279.79
368.054	2291.99
368.277	2303.59
368.5	2319.38
368.722	2334.74
368.945	2352.18
369.167	2367.79
369.39	2384.48
369.612	2397.12
369.835	2416.12
370.057	2431.05
370.28	2448.23
370.502	2465.38
370.725	2481.99
370.947	2499.27
371.169	2519.59
371.392	2535.81
371.614	2552.34
371.837	2568.45
372.059	2588.25
372.281	2602.9
372.504	2623.39
372.726	2639.83
372.948	2658.12
373.171	2676.12
373.393	2694.85
373.615	2711.08
373.837	2730.05
374.06	2749.16
374.282	2769.39
374.504	2789.27
374.726	2808.54
374.948	2826.88
375.17	2846.36
375.393	2865.36
375.615	2882.61
375.837	2901.32
376.059	2921.14
376.281	2938.32
376.503	2957.56
376.725	2979.59
376.947	2996.81
377.169	3016.16
377.391	3035.3
377.613	3053.79
377.835	3076.25
378.057	3100.47
378.279	3123.38
378.501	3146.96
378.723	3170.19
378.945	3189.58
379.167	3207.68
379.389	3231.79
379.611	3256.19
379.833	3280.41
380.054	3305.18
380.276	3327.21
380.498	3348.81
380.72	3372.92
380.942	3397.34
381.163	3424.39
381.385	3451.99
381.607	3478.58
381.829	3501.96
382.05	3527.94
382.272	3554.05
382.494	3577.92
382.716	3601.36
382.937	3626.92
383.159	3649.43
383.381	3672.3
383.602	3696.54
383.824	3720.28
384.045	3746.85
384.267	3775.18
384.488	3799.92
384.71	3823.9
384.932	3849.58
385.153	3876.47
385.375	3907.38
385.596	3934.18
385.818	3960.52
386.039	3989.01
386.261	4017.85
386.482	4042.98
386.703	4069.61
386.925	4098.07
387.146	4128.72
387.368	4158.34
387.589	4189.58
387.81	4216.27
388.032	4248.59
388.253	4279.16
388.474	4311.38
388.696	4341.65
388.917	4374.47
389.138	4403.78
389.359	4437.1
389.581	4468.41
389.802	4498.7
390.023	4528.88
390.244	4555.19
390.465	4584.7
390.687	4614.19
390.908	4639.25
391.129	4668.23
391.35	4697.99
391.571	4733.98
391.792	4763.1
392.013	4792.92
392.234	4824.23
392.455	4855.68
392.677	4892.39
392.898	4924.56
393.119	4957.78
393.34	4991.27
393.561	5024.54
393.782	5058.21
394.003	5087.07
394.223	5116.43
394.444	5149.21
394.665	5185.41
394.886	5219.01
395.107	5250.58
395.328	5284.08
395.549	5321.32
395.77	5356.07
395.99	5392.72
396.211	5425.47
396.432	5458.74
396.653	5498.01
396.874	5532.76
397.094	5564.98
397.315	5596.01
397.536	5630.87
397.757	5662.74
397.977	5694.3
398.198	5726.27
398.419	5760.61
398.639	5795.27
398.86	5832.45
399.081	5867.25
399.301	5901.87
399.522	5936.68
399.742	5974.14
399.963	6012.25
400.184	6049.14
400.404	6086.05
400.625	6121.18
400.845	6154.34
401.066	6190.81
401.286	6224.9
401.507	6260.21
401.727	6296.81
401.948	6335.14
402.168	6370.07
402.388	6400.98
402.609	6434.23
402.829	6467.85
403.05	6505.5
403.27	6542.96
403.49	6577.54
403.711	6609.3
403.931	6645.9
404.151	6679.68
404.372	6710.27
404.592	6749.98
404.812	6785.56
405.032	6822.34
405.253	6856.81
405.473	6889.65
405.693	6922.74
405.913	6959.98
406.133	6999.03
406.353	7033.48
406.574	7068.96
406.794	7105.79
407.014	7140.96
407.234	7178.08
407.454	7212.87
407.674	7250.12
407.894	7284.9
408.114	7320.87
408.334	7357.25
408.554	7395.18
408.774	7432.32
408.994	7470.36
409.214	7511.74
409.434	7547.47
409.654	7585.74
409.874	7627.41
410.094	7663.3
410.314	7708.28
410.534	7748.3
410.754	7787.48
410.974	7829.08
411.193	7868.3
411.413	7907.05
411.633	7942.41
411.853	7982.67
412.073	8020.05
412.292	8058.32
412.512	8099.14
412.732	8134.72
412.952	8172.32
413.171	8210.14
413.391	8243.96
413.611	8283.38
413.831	8326.98
414.05	8373.3
414.27	8413.85
414.489	8459.58
414.709	8503.01
414.929	8547.76
415.148	8590.54
415.368	8635.98
415.587	8681.76
415.807	8731.96
416.026	8772.01
416.246	8811.74
416.465	8856.34
416.685	8895.76
416.904	8939.74
417.124	8980.08
417.343	9028.08
417.563	9073.92
417.782	9116.87
418.002	9158.98
418.221	9203.45
418.44	9248.45
418.66	9295.88
418.879	9333.3
419.098	9384.28
419.318	9428.58
419.537	9475.3
419.756	9514.18
419.976	9554.01
420.195	9600.87
420.414	9643.96
420.633	9681.01
420.853	9721.27
421.072	9759.79
421.291	9801.72
421.51	9843.54
421.729	9884.65
421.948	9928.65
422.168	9968.7
422.387	10014.03
422.606	10052.07
422.825	10097.81
423.044	10144.81
423.263	10194.47
423.482	10236.74
423.701	10287.36
423.92	10327.88
424.139	10373.36
424.358	10417.05
424.577	10466.03
424.796	10512.14
425.015	10566.16
425.234	10611.76
425.453	10654.18
425.672	10700.81
425.891	10753.45
426.11	10798.68
426.328	10846.65
426.547	10891.92
426.766	10935.27
426.985	10982.98
427.204	11031.76
427.422	11076.47
427.641	11124.87
427.86	11175.34
428.079	11219.47
428.297	11275.16
428.516	11321.74
428.735	11370.12
428.954	11420.18
429.172	11468.67
429.391	11518.05
429.61	11567.12
429.828	11613.61
430.047	11661.41
430.265	11710.63
430.484	11760.18
430.703	11798.03
430.921	11842.99
431.14	11889.5
431.358	11932.59
431.577	11977.16
431.795	12025.21
432.014	12067.87
432.232	12115.94
432.451	12159.81
432.669	12208.27
432.887	12253.78
433.106	12298.5
433.324	12346.79
433.543	12397.1
433.761	12441.99
433.979	12498.61
434.198	12546.34
434.416	12594.34
434.634	12642.12
434.853	12694.52
435.071	12737.19
435.289	12788.03
435.507	12838.32
435.726	12887.48
435.944	12928.12
436.162	12976.59
436.38	13020.52
436.598	13062.78
436.817	13111.67
437.035	13157.7
437.253	13198.25
437.471	13250.08
437.689	13292.19
437.907	13339.23
438.125	13384.36
438.343	13431.96
438.561	13487.34
438.78	13529.81
438.998	13581.21
439.216	13625.47
439.434	13669.28
439.652	13720.3
439.869	13768.41
440.087	13814.98
440.305	13858.98
440.523	13905.18
440.741	13959.07
440.959	13998.56
441.177	14052.12
441.395	14096.96
441.613	14149.25
441.831	14198.54
442.048	14245.7
442.266	14285.65
442.484	14338.43
442.702	14390.28
442.919	14441.25
443.137	14490.67
443.355	14544.45
443.573	14592.52
443.79	14638.39
444.008	14687.39
444.226	14738.23
444.443	14784.36
444.661	14835.08
444.879	14884.41
445.096	14936.07
445.314	14991.34
445.532	15034.76
445.749	15084.58
445.967	15133.32
446.184	15189.88
446.402	15236.72
446.619	15287.3
446.837	15336.83
447.054	15389.65
447.272	15431.5
447.489	15479.67
447.707	15517.76
447.924	15567.19
448.141	15612.27
448.359	15662.83
448.576	15709.23
448.794	15759.99
449.011	15801.58
449.228	15851.7
449.446	15892.18
449.663	15948.23
449.88	15990.32
450.098	16047.16
450.315	16096.79
450.532	16140.65
450.749	16188.56
450.967	16234.58
451.184	16278.56
451.401	16329.16
451.618	16377.32
451.835	16434.28
452.052	16476.47
452.27	16526.58
452.487	16576.43
452.704	16620.48
452.921	16669.58
453.138	16715.88
453.355	16762.28
453.572	16812.34
453.789	16856.1
454.006	16903.83
454.223	16954.47
454.44	17008.58
454.657	17063.78
454.874	17106.81
455.091	17161.67
455.308	17214.83
455.525	17259.83
455.742	17306.3
455.959	17354.47
456.176	17407.9
456.393	17460.01
456.609	17499.05
456.826	17542.07
457.043	17585.38
457.26	17626.68
457.477	17670.92
457.693	17713.61
457.91	17762.07
458.127	17809.18
458.344	17846.9
458.56	17888.78
458.777	17921.74
458.994	17959.34
459.21	17997.59
459.427	18028.85
459.644	18065.68
459.86	18096.9
460.077	18128.08
460.294	18161.38
460.51	18189.68
460.727	18229.72
460.943	18264.43
461.16	18302.03
461.376	18344.88
461.593	18379.18
461.809	18420.34
462.026	18463.78
462.242	18502.59
462.459	18543.05
462.675	18586.1
462.892	18631.19
463.108	18666.45
463.324	18707.67
463.541	18751.19
463.757	18793.28
463.974	18840.63
464.19	18885.88
464.406	18929.32
464.623	18978.38
464.839	19033.21
465.055	19073.9
465.271	19121.74
465.488	19175.56
465.704	19222.45
465.92	19276.68
466.136	19328.67
466.353	19386.52
466.569	19439.56
466.785	19501.21
467.001	19555.19
467.217	19606.19
467.433	19667.83
467.649	19726.38
467.865	19787.25
468.082	19848.94
468.298	19905.9
468.514	19961.7
468.73	20022.67
468.946	20085.43
469.162	20142.43
469.378	20203.79
469.594	20272.88
469.81	20332.3
470.026	20393.74
470.242	20456.32
470.457	20520.98
470.673	20590.65
470.889	20659.36
471.105	20722.94
471.321	20790.21
471.537	20855.63
471.753	20927.36
471.968	20993.92
472.184	21065.16
472.4	21143.18
472.616	21216.12
472.832	21292.78
473.047	21361.03
473.263	21436.05
473.479	21503.3
473.694	21572.14
473.91	21638.87
474.126	21711.68
474.341	21788.41
474.557	21858.59
474.773	21919.65
474.988	21984.88
475.204	22058.41
475.42	22135.08
475.635	22202.98
475.851	22276.65
476.066	22348.63
476.282	22429.45
476.497	22498.99
476.713	22554.99
476.928	22626.48
477.144	22694.67
477.359	22765.52
477.575	22824.87
477.79	22884.88
478.005	22950.72
478.221	23014.43
478.436	23074.47
478.651	23133.96
478.867	23192.99
479.082	23262.74
479.297	23327.18
479.513	23388.67
479.728	23443.08
479.943	23492.27
480.159	23543.45
480.374	23592.07
480.589	23636.1
480.804	23692.96
481.019	23747.08
481.235	23795.28
481.45	23836.79
481.665	23878.94
481.88	23934.25
482.095	23985.67
482.31	24046.92
482.525	24096.92
482.741	24150.68
482.956	24206.25
483.171	24251.83
483.386	24292.21
483.601	24340.87
483.816	24395.45
484.031	24441.59
484.246	24483.08
484.461	24528.87
484.676	24573.12
484.891	24627.85
485.105	24670.68
485.32	24718.21
485.535	24767.79
485.75	24814.63
485.965	24859.58
486.18	24896.61
486.395	24935.83
486.609	24981.41
486.824	25016.36
487.039	25055.32
487.254	25089.43
487.469	25139.1
487.683	25174.47
487.898	25205.39
488.113	25248.99
488.327	25291.34
488.542	25326.76
488.757	25373.74
488.972	25402.58
489.186	25443.45
489.401	25471.27
489.615	25508.61
489.83	25531.08
490.045	25565.68
490.259	25603.76
490.474	25632.03
490.688	25661.52
490.903	25696.58
491.117	25721.16
491.332	25768.32
491.546	25800.32
491.761	25835.43
491.975	25864.61
492.19	25904.07
492.404	25937.99
492.618	25962.41
492.833	25995.74
493.047	26029.28
493.262	26061.99
493.476	26095.08
493.69	26123.23
493.905	26154.9
494.119	26186.78
494.333	26210.18
494.547	26230.81
494.762	26266.61
494.976	26304.87
495.19	26327.03
495.404	26354.83
495.619	26381.41
495.833	26403.98
496.047	26415.61
496.261	26433.08
496.475	26447.92
496.689	26464.68
496.903	26474.07
497.117	26467.74
497.332	26463.56
497.546	26461.45
497.76	26445.18
497.974	26425.28
498.188	26410.45
498.402	26395.34
498.616	26380.54
498.83	26371.7
499.044	26359.32
499.258	26360.68
499.472	26365.36
499.685	26366.72
499.899	26368.81
500.113	26383.63
500.327	26403.34
500.541	26421.18
500.755	26436.45
500.969	26458.74
501.183	26476.18
501.396	26499.18
501.61	26513.48
501.824	26534.45
502.038	26556.94
502.251	26579.7
502.465	26588.19
502.679	26612.05
502.892	26630.18
503.106	26660.85
503.32	26676.3
503.533	26696.12
503.747	26721.43
503.961	26748.65
504.174	26767.59
504.388	26796.47
504.602	26824.54
504.815	26858.1
505.029	26894.43
505.242	26933.96
505.456	26976.21
505.669	27028.52
505.883	27080.65
506.096	27126.16
506.31	27178.1
506.523	27230.45
506.736	27279.85
506.95	27343.45
507.163	27399.61
507.377	27455.34
507.59	27513.61
507.803	27562.72
508.017	27620.94
508.23	27684.38
508.443	27749.63
508.657	27815.54
508.87	27881.92
509.083	27946.74
509.296	28009.83
509.51	28087.07
509.723	28168.27
509.936	28253.87
510.149	28351.88
510.363	28439.39
510.576	28528.1
510.789	28618.07
511.002	28714.25
511.215	28816.88
511.428	28918.9
511.641	29014.47
511.854	29123.41
512.067	29216.54
512.28	29324.72
512.493	29419.3
512.707	29523.1
512.92	29629.41
513.132	29730.9
513.345	29827.03
513.558	29927.96
513.771	30036.99
513.984	30146.01
514.197	30252.08
514.41	30363.52
514.623	30465.79
514.836	30576.23
515.049	30680.94
515.262	30785.1
515.474	30893.7
515.687	31000.41
515.9	31102.63
516.113	31201.99
516.325	31300.98
516.538	31391.14
516.751	31483.16
516.964	31568.27
517.176	31656.58
517.389	31745.36
517.602	31829.34
517.814	31911.27
518.027	31988.5
518.24	32073.85
518.452	32156.83
518.665	32243.99
518.877	32330.45
519.09	32408.39
519.303	32487.68
519.515	32564.12
519.728	32638.16
519.94	32704.54
520.153	32773.05
520.365	32844.78
520.578	32911.98
520.79	32971.99
521.002	33040.23
521.215	33099.85
521.427	33158.34
521.64	33214.08
521.852	33263.16
522.064	33307.76
522.277	33358.81
522.489	33416.41
522.701	33469.63
522.914	33521.52
523.126	33560.48
523.338	33600.43
523.551	33640.58
523.763	33677.65
523.975	33726.27
524.187	33782.74
524.399	33846.98
524.612	33899.45
524.824	33950.81
525.036	34000.01
525.248	34041.27
525.46	34095.99
525.672	34138.07
525.884	34179.59
526.096	34231.21
526.308	34266.43
526.521	34290.3
526.733	34316.83
526.945	34347.78
527.157	34371.74
527.369	34402.54
527.581	34433.34
527.793	34465.67
528.004	34486.61
528.216	34524.94
528.428	34555.03
528.64	34586.45
528.852	34624.43
529.064	34648.41
529.276	34686.88
529.488	34715.18
529.699	34737.19
529.911	34762.85
530.123	34782.3
530.335	34815.68
530.547	34850.27
530.758	34866.79
530.97	34896.78
531.182	34928.28
531.393	34966.58
531.605	34991.12
531.817	35026.92
532.029	35055.43
532.24	35083.05
532.452	35116.41
532.663	35143.76
532.875	35162.67
533.087	35196.43
533.298	35224.39
533.51	35237.14
533.721	35247.94
533.933	35267.14
534.144	35282.68
534.356	35300.12
534.567	35312.85
534.779	35329.54
534.99	35349.67
535.202	35372.85
535.413	35387.81
535.624	35404.08
535.836	35429.34
536.047	35456.96
536.259	35471.78
536.47	35480.65
536.681	35498.81
536.893	35520.25
537.104	35527.96
537.315	35547.68
537.526	35557.63
537.738	35576.68
537.949	35581.18
538.16	35597.58
538.371	35612.81
538.582	35627.74
538.794	35650.16
539.005	35670.01
539.216	35686.34
539.427	35724.47
539.638	35742.47
539.849	35759.79
540.06	35777.47
540.272	35807.25
540.483	35827.59
540.694	35848.28
540.905	35863.56
541.116	35886.56
541.327	35905.18
541.538	35912.79
541.749	35916.78
541.96	35916.87
542.17	35928.9
542.381	35941.47
542.592	35955.19
542.803	35963.98
543.014	35971.72
543.225	35983.87
543.436	35985.41
543.647	35982.28
543.857	36001.61
544.068	36014.96
544.279	36027.59
544.49	36032.61
544.701	36045.48
544.911	36054.01
545.122	36058.45
545.333	36060.76
545.543	36068.21
545.754	36078.52
545.965	36103.39
546.175	36113.19
546.386	36118.52
546.597	36135.32
546.807	36151.76
547.018	36161.59
547.229	36168.96
547.439	36180.25
547.65	36192.39
547.86	36209.19
548.071	36213.87
548.281	36217.45
548.492	36226.94
548.702	36232.16
548.913	36242.78
549.123	36240.88
549.333	36245.16
549.544	36251.23
549.754	36251.34
549.965	36250.94
550.175	36259.61
550.385	36279.78
550.596	36302.18
550.806	36312.63
551.016	36320.96
551.227	36332.38
551.437	36348.41
551.647	36360.48
551.857	36379.63
552.068	36396.27
552.278	36410.81
552.488	36418.65
552.698	36424.7
552.908	36426.67
553.119	36431.12
553.329	36443.16
553.539	36441.28
553.749	36447.81
553.959	36453.1
554.169	36443.05
554.379	36439.23
554.589	36440.03
554.799	36442.34
555.009	36443.08
555.219	36437.48
555.429	36440.3
555.639	36435.14
555.849	36448.92
556.059	36454.63
556.269	36452.39
556.479	36454.98
556.689	36464.3
556.899	36474.28
557.109	36482.61
557.319	36494.32
557.528	36497.68
557.738	36482.12
557.948	36488.39
558.158	36476.56
558.368	36457.94
558.577	36451.03
558.787	36449.47
558.997	36433.74
559.207	36425.65
559.416	36403.61
559.626	36376.88
559.836	36368.28
560.045	36376.76
560.255	36373.12
560.465	36371.12
560.674	36385.76
560.884	36385.25
561.093	36384.28
561.303	36390.54
561.512	36385.96
561.722	36390.47
561.932	36396.67
562.141	36385.48
562.351	36390.39
562.56	36389.79
562.769	36388.39
562.979	36385.65
563.188	36391.74
563.398	36385.79
563.607	36382.05
563.817	36386.92
564.026	36383.99
564.235	36374.1
564.445	36379.12
564.654	36372.16
564.863	36364.25
565.073	36359.16
565.282	36354.78
565.491	36350.45
565.7	36350.19
565.91	36341.94
566.119	36325.01
566.328	36319.01
566.537	36317.18
566.746	36313.1
566.956	36306.3
567.165	36301.83
567.374	36290.21
567.583	36279.12
567.792	36261.05
568.001	36251.23
568.21	36234.72
568.419	36213.61
568.628	36187.74
568.837	36167.79
569.046	36143.1
569.255	36112.83
569.464	36075.16
569.673	36052.3
569.882	36018.19
570.091	36002.39
570.3	35980.74
570.509	35969.03
570.718	35963.21
570.927	35955.63
571.135	35950.96
571.344	35943.3
571.553	35949.38
571.762	35952.61
571.971	35950.85
572.18	35947.14
572.388	35937.68
572.597	35922.88
572.806	35902.87
573.014	35894.34
573.223	35874.12
573.432	35853.28
573.641	35829.36
573.849	35789.87
574.058	35767.68
574.266	35745.7
574.475	35734.25
574.684	35714.74
574.892	35704.92
575.101	35697.34
575.309	35687.72
575.518	35678.96
575.726	35660.85
575.935	35665.39
576.143	35661.74
576.352	35649.25
576.56	35639.16
576.769	35619.87
576.977	35599.12
577.186	35574.63
577.394	35556.05
577.602	35523.83
577.811	35515.54
578.019	35509.83
578.228	35481.21
578.436	35462.47
578.644	35452.36
578.852	35416.63
579.061	35404.01
579.269	35383.74
579.477	35353.48
579.685	35336.78
579.894	35327.3
580.102	35292.76
580.31	35267.47
580.518	35253.14
580.726	35242.41
580.935	35222.59
581.143	35209.39
581.351	35188.25
581.559	35168.5
581.767	35160.79
581.975	35138.61
582.183	35110.76
582.391	35103.5
582.599	35085.45
582.807	35056.9
583.015	35036.92
583.223	35014.74
583.431	34994.88
583.639	34966.48
583.847	34944.16
584.055	34921.9
584.263	34902.54
584.471	34882.23
584.678	34857.1
584.886	34829.14
585.094	34816.21
585.302	34787.27
585.51	34766.59
585.718	34750.68
585.925	34733.96
586.133	34719.12
586.341	34701.65
586.549	34688.08
586.756	34680.25
586.964	34653.3
587.172	34632.68
587.379	34597.79
587.587	34575.96
587.795	34546.36
588.002	34517.68
588.21	34501.67
588.417	34482.16
588.625	34454.25
588.833	34424.43
589.04	34383.38
589.248	34366.3
589.455	34352.87
589.663	34345.5
589.87	34325.54
590.078	34309.23
590.285	34294.76
590.492	34267.65
590.7	34243.56
590.907	34224.54
591.115	34206.98
591.322	34192.45
591.529	34168.45
591.737	34135.21
591.944	34106.99
592.151	34086.81
592.359	34059.67
592.566	34035.96
592.773	33999.38
592.981	33973.83
593.188	33943.3
593.395	33911.19
593.602	33884.32
593.809	33854.87
594.017	33829.98
594.224	33801.88
594.431	33773.14
594.638	33738.41
594.845	33704.78
595.052	33681.79
595.259	33653.79
595.466	33641.59
595.673	33619.1
595.88	33596.19
596.088	33580.81
596.295	33557.7
596.502	33532.74
596.709	33502.32
596.915	33491.52
597.122	33469.16
597.329	33456.28
597.536	33441.94
597.743	33419.16
597.95	33392.63
598.157	33368.72
598.364	33331.27
598.571	33295.56
598.777	33263.47
598.984	33215.12
599.191	33165.25
599.398	33122.03
599.605	33074.34
599.811	33017.99
600.018	32957.68
600.225	32897.79
600.431	32841.7
600.638	32798.94
600.845	32764.28
601.052	32733.85
601.258	32711.14
601.465	32670.76
601.671	32613.47
601.878	32546.41
602.085	32465.98
602.291	32373.43
602.498	32271.27
602.704	32144.36
602.911	31986.14
603.117	31804.36
603.324	31595.21
603.53	31375.7
603.737	31145.92
603.943	30913.58
604.15	30672.58
604.356	30420.08
604.562	30157.7
604.769	29891.81
604.975	29626.3
605.181	29364.9
605.388	29105.12
605.594	28847.83
605.8	28579.67
606.007	28309.19
606.213	28046.16
606.419	27770.5
606.625	27503.28
606.832	27233.79
607.038	26970.01
607.244	26702.68
607.45	26434.05
607.656	26160.25
607.863	25871.78
608.069	25599.18
608.275	25331.05
608.481	25043.23
608.687	24754.39
608.893	24466.87
609.099	24186.32
609.305	23901.52
609.511	23603.74
609.717	23310.94
609.923	23017.5
610.129	22723.36
610.335	22425.34
610.541	22120.96
610.747	21820.54
610.953	21520.08
611.159	21214.78
611.365	20899.9
611.571	20574.32
611.776	20261.76
611.982	19940.99
612.188	19621.94
612.394	19303.08
612.6	18972.07
612.806	18647.58
613.011	18321.39
613.217	17990.68
613.423	17662.94
613.628	17343.41
613.834	17033.87
614.04	16722.79
614.246	16412.43
614.451	16103.38
614.657	15808.47
614.862	15528.19
615.068	15245.61
615.274	14970.85
615.479	14708.39
615.685	14446.99
615.89	14191.18
616.096	13928.65
616.301	13668.21
616.507	13412.28
616.712	13152.34
616.918	12888.63
617.123	12619.88
617.329	12348.74
617.534	12070.87
617.74	11788.52
617.945	11509.85
618.15	11205.58
618.356	10737.21
618.561	9876.92
618.766	8833.68
618.972	7760.43
619.177	6710.98
619.382	5687.96
619.588	4692.07
619.793	4099.39
619.998	3408.11
620.203	2571.44
620.408	1565.81
620.614	583.1
