Data from test1_MAYP1115451__96__10-15-09-692.txt Node

Date: Wed Jun 12 10:15:09 MDT 2024
User: Modes Lab
Spectrometer: MAYP111545
Trigger mode: 0
Integration Time (sec): 8.000000E-3
Scans to average: 5
Electric dark correction enabled: true
Nonlinearity correction enabled: false
Boxcar width: 5
XAxis mode: Wavelengths
Number of Pixels in Spectrum: 2068
>>>>>Begin Spectral Data<<<<<
165.214	164.17
165.449	162.78
165.683	172.41
165.918	181.28
166.152	187.31
166.387	192.56
166.621	124.36
166.856	162.78
167.09	180.98
167.325	204.25
167.559	221.03
167.794	234.65
168.028	243.54
168.263	244.49
168.497	243.96
168.732	244.56
168.966	246.11
169.2	247.91
169.435	249.65
169.669	251.51
169.903	253.27
170.138	254.71
170.372	256.32
170.606	257.58
170.841	259.2
171.075	261.71
171.309	263.2
171.544	264.12
171.778	266.65
172.012	267.91
172.246	269.87
172.48	271.71
172.715	272.92
172.949	274.91
173.183	276.72
173.417	277.85
173.651	279.29
173.885	281.14
174.119	281.85
174.354	282.8
174.588	284.03
174.822	283.8
175.056	283.47
175.29	284.09
175.524	283.8
175.758	283.29
175.992	284.87
176.226	283.76
176.46	283.8
176.694	284.71
176.928	283.96
177.162	284.52
177.396	284.56
177.63	286.56
177.864	287.38
178.097	288.72
178.331	289.52
178.565	289.91
178.799	291.67
179.033	292.91
179.267	293.87
179.5	296
179.734	296.62
179.968	299.63
180.202	299.65
180.436	300.56
180.669	301.62
180.903	302
181.137	302.38
181.371	303.14
181.604	304.03
181.838	305.56
182.072	305.62
182.305	306.38
182.539	306.25
182.772	307.03
183.006	308.14
183.24	308.34
183.473	312.56
183.707	314.72
183.94	315.82
184.174	317
184.408	317.16
184.641	318
184.875	319.16
185.108	320.69
185.342	322
185.575	323.83
185.808	325.14
186.042	325.07
186.275	325.31
186.509	328.02
186.742	329.38
186.976	330.94
187.209	332.72
187.442	334.67
187.676	335.82
187.909	337.62
188.142	338.02
188.376	340
188.609	340.83
188.842	341.82
189.076	342.11
189.309	344.16
189.542	346.25
189.775	347.89
190.009	349.2
190.242	351.47
190.475	353.23
190.708	355.25
190.941	357.49
191.174	359.74
191.408	361.32
191.641	363.4
191.874	364.43
192.107	365.62
192.34	367.16
192.573	369.03
192.806	369.92
193.039	371.52
193.272	373.36
193.505	374
193.738	375.54
193.971	377.69
194.204	379.51
194.437	381.76
194.67	383.45
194.903	384.38
195.136	385.6
195.369	388.45
195.602	390.43
195.835	392.12
196.068	395.45
196.301	396.18
196.533	398.54
196.766	400.22
196.999	402.31
197.232	404.63
197.465	407
197.698	409.25
197.93	410.58
198.163	412.4
198.396	414.98
198.629	415.36
198.861	418.82
199.094	421.16
199.327	424.54
199.559	425.62
199.792	427.32
200.025	429.98
200.257	433.12
200.49	435.14
200.723	437.29
200.955	438.72
201.188	442.45
201.42	444.14
201.653	446.52
201.886	448.11
202.118	449.89
202.351	452.2
202.583	454.92
202.816	455.63
203.048	458.78
203.281	461.4
203.513	464.36
203.745	467.11
203.978	469.34
204.21	471.92
204.443	473.31
204.675	475.36
204.907	478.34
205.14	479.47
205.372	483.54
205.605	485.94
205.837	487.76
206.069	490.71
206.302	492.23
206.534	494.54
206.766	495.63
206.998	498.51
207.231	502.72
207.463	504.65
207.695	507.49
207.927	509.36
208.159	510.6
208.392	513.31
208.624	515.43
208.856	517.25
209.088	518.94
209.32	520.91
209.552	522.67
209.784	523.71
210.017	525.76
210.249	528.14
210.481	529.62
210.713	532.34
210.945	534.45
211.177	535.51
211.409	537.34
211.641	539.27
211.873	542.2
212.105	543.31
212.337	544.87
212.569	546.82
212.801	548.02
213.033	548.92
213.264	550.02
213.496	551.67
213.728	553.76
213.96	556.25
214.192	557.69
214.424	558.56
214.656	561.89
214.887	565.45
215.119	568.07
215.351	570.38
215.583	572.43
215.815	574.92
216.046	576.54
216.278	577.54
216.51	579.16
216.741	581.22
216.973	584.23
217.205	585.47
217.436	586.03
217.668	588.23
217.9	589.67
218.131	591.34
218.363	592.58
218.595	594.34
218.826	596.16
219.058	597.62
219.289	599.03
219.521	599.65
219.752	600.02
219.984	601.56
220.215	600.78
220.447	601.58
220.678	602.54
220.91	604.25
221.141	605.71
221.373	607.36
221.604	607.92
221.836	609.32
222.067	610.8
222.298	611.96
222.53	612.63
222.761	614.89
222.993	616.96
223.224	618.25
223.455	618.12
223.686	619.2
223.918	619.31
224.149	620.4
224.38	620.51
224.612	620.76
224.843	622.25
225.074	623.29
225.305	623.74
225.536	624.47
225.768	626.52
225.999	627.02
226.23	627.03
226.461	626.63
226.692	627.69
226.923	629.4
227.155	631.54
227.386	631.8
227.617	632.07
227.848	631.65
228.079	631.87
228.31	631.38
228.541	633.11
228.772	633.4
229.003	636.09
229.234	635.18
229.465	635.14
229.696	632.71
229.927	633.02
230.158	634.03
230.389	633.98
230.62	634.05
230.85	634.98
231.081	634.98
231.312	633.83
231.543	633.98
231.774	635.83
232.005	636.87
232.236	638.98
232.466	639.76
232.697	638.2
232.928	638.83
233.159	638.49
233.389	637.82
233.62	637.78
233.851	639.22
234.082	637.45
234.312	636.82
234.543	635.74
234.774	633.89
235.004	633.82
235.235	635.14
235.466	634.49
235.696	634.65
235.927	634.36
236.157	633.18
236.388	633.56
236.618	634.67
236.849	635.25
237.08	636.49
237.31	637.05
237.541	636.02
237.771	635.16
238.002	636.34
238.232	635.89
238.463	636.63
238.693	637.54
238.923	638.03
239.154	638.02
239.384	636.87
239.615	635.62
239.845	635.82
240.075	636.65
240.306	636.56
240.536	635.74
240.766	636.58
240.997	635.23
241.227	634.34
241.457	633
241.687	632.62
241.918	631.87
242.148	631.8
242.378	632.07
242.608	629.76
242.839	629.11
243.069	628.16
243.299	627.38
243.529	628.65
243.759	628.43
243.989	627.82
244.22	626.54
244.45	626.09
244.68	624.12
244.91	623.47
245.14	624.42
245.37	624.87
245.6	624.34
245.83	623.32
246.06	622.07
246.29	621.78
246.52	621.36
246.75	621.23
246.98	620.29
247.21	621.78
247.44	620.49
247.67	618.91
247.9	617.91
248.13	617.47
248.359	616.22
248.589	614.89
248.819	613.45
249.049	611.25
249.279	611.03
249.509	610.4
249.738	608.71
249.968	608.14
250.198	607.51
250.428	606.69
250.657	606.36
250.887	606.43
251.117	606.27
251.347	604.98
251.576	605.71
251.806	604.09
252.036	603.23
252.265	602.91
252.495	601.62
252.725	600.83
252.954	600.2
253.184	598.58
253.413	597.42
253.643	597.12
253.873	596.98
254.102	597.34
254.332	596.98
254.561	597.05
254.791	596.76
255.02	596.87
255.25	596.16
255.479	596.47
255.708	596.34
255.938	596.18
256.167	593.89
256.397	594.43
256.626	592.65
256.856	591.63
257.085	590.51
257.314	590.07
257.544	589.6
257.773	589.4
258.002	587.09
258.232	586.72
258.461	586.32
258.69	586.05
258.919	584.25
259.149	583.29
259.378	583.05
259.607	584
259.836	581.94
260.065	582.25
260.295	581.54
260.524	582.43
260.753	582.25
260.982	581.31
261.211	581.51
261.44	581.54
261.669	581.25
261.899	580.2
262.128	578.71
262.357	578.22
262.586	577.16
262.815	576.38
263.044	573.82
263.273	576.05
263.502	575.38
263.731	575.54
263.96	573.67
264.189	572.02
264.418	571.6
264.646	570.49
264.875	569.94
265.104	567.96
265.333	567.4
265.562	567.16
265.791	563.2
266.02	561.2
266.249	559.31
266.477	558.98
266.706	558.42
266.935	558.11
267.164	557.14
267.393	556.18
267.621	556.45
267.85	555.51
268.079	554.14
268.307	553.72
268.536	554.11
268.765	553.27
268.993	553.34
269.222	553.25
269.451	552.72
269.679	552.16
269.908	552.62
270.137	551.42
270.365	551.07
270.594	552.23
270.822	551.51
271.051	550.52
271.279	551.78
271.508	552.63
271.736	553.38
271.965	554.03
272.193	554.2
272.422	554
272.65	554.74
272.879	555.05
273.107	554.62
273.336	554.65
273.564	554.31
273.792	551.52
274.021	550.54
274.249	548.54
274.477	546.63
274.706	544.91
274.934	543.63
275.162	541.92
275.391	540.65
275.619	539.54
275.847	538.51
276.075	537.89
276.304	536.58
276.532	534.69
276.76	533.62
276.988	532.34
277.216	532.31
277.445	531.43
277.673	531.09
277.901	530.09
278.129	529.94
278.357	529.12
278.585	528.49
278.813	528.49
279.041	527.11
279.269	526.69
279.497	526.85
279.725	526.52
279.954	524.8
280.182	522.83
280.41	522.69
280.637	521.14
280.865	520.03
281.093	521.18
281.321	521.4
281.549	521.63
281.777	521
282.005	520.09
282.233	518.89
282.461	519.42
282.689	520.85
282.916	520.74
283.144	520.51
283.372	520.92
283.6	519.11
283.828	517.78
284.055	518.38
284.283	517.96
284.511	517.6
284.739	517.07
284.966	516.34
285.194	513.87
285.422	512.43
285.649	511.51
285.877	510.11
286.105	509.52
286.332	509.34
286.56	507.83
286.788	507.91
287.015	507.78
287.243	508.03
287.47	507.11
287.698	507.42
287.925	507.94
288.153	509.07
288.381	509.62
288.608	508.34
288.836	507.31
289.063	506.89
289.29	504.6
289.518	504.27
289.745	502.76
289.973	503.65
290.2	504.02
290.428	502.65
290.655	499.8
290.882	498.78
291.11	497.74
291.337	497.4
291.564	496.23
291.792	496.05
292.019	495.23
292.246	495.54
292.473	493.42
292.701	491.87
292.928	492.47
293.155	492.32
293.382	491.34
293.61	491.22
293.837	490.29
294.064	490.56
294.291	490.62
294.518	489.34
294.745	487.87
294.972	487.09
295.2	487.25
295.427	485.65
295.654	486.42
295.881	485.29
296.108	485.96
296.335	486.45
296.562	484.98
296.789	484.65
297.016	484.71
297.243	484.98
297.47	485.96
297.697	484.25
297.924	484.29
298.151	482.11
298.378	481
298.604	479.98
298.831	478.98
299.058	478.54
299.285	478.16
299.512	477.62
299.739	477.07
299.966	476.32
300.192	476.14
300.419	476.2
300.646	476.38
300.873	476.62
301.099	476
301.326	475.54
301.553	474.54
301.78	475.23
302.006	474.27
302.233	474.09
302.46	473.92
302.686	473.87
302.913	472.45
303.14	473.34
303.366	473.45
303.593	473.36
303.819	473.29
304.046	472.69
304.272	471.58
304.499	471.69
304.725	470.14
304.952	468.78
305.179	468.74
305.405	468.89
305.631	467.31
305.858	466.94
306.084	466.34
306.311	465.22
306.537	465.85
306.764	464.72
306.99	463.69
307.216	463.96
307.443	463.71
307.669	464.02
307.895	462.89
308.122	462.78
308.348	463.23
308.574	461.07
308.801	461.54
309.027	462
309.253	463.34
309.479	462.69
309.706	463.29
309.932	463.23
310.158	460.85
310.384	460.65
310.61	459.89
310.837	458.67
311.063	459.8
311.289	458.92
311.515	457.63
311.741	456.02
311.967	457.52
312.193	456.98
312.419	456.65
312.645	457.8
312.871	458.25
313.097	458.92
313.323	458.18
313.549	459.2
313.775	459.47
314.001	460.85
314.227	460.52
314.453	460.36
314.679	459.78
314.905	459.74
315.131	460.43
315.357	459.96
315.583	459.96
315.809	460.85
316.034	462.02
316.26	462.02
316.486	462.23
316.712	463.42
316.938	462.6
317.163	463.89
317.389	463.89
317.615	462.91
317.841	464.47
318.066	465
318.292	466.69
318.518	466.47
318.743	468.07
318.969	468.58
319.195	470.38
319.42	472.6
319.646	473.76
319.872	476.36
320.097	478.2
320.323	479.14
320.548	480.98
320.774	481.92
320.999	482.49
321.225	484.47
321.45	486.18
321.676	487.23
321.901	487.91
322.127	489.11
322.352	489.34
322.578	490.58
322.803	491.2
323.029	492.27
323.254	493.27
323.479	494.94
323.705	496.03
323.93	496.23
324.155	497.67
324.381	498.43
324.606	500.62
324.831	504.03
325.057	505.38
325.282	508.12
325.507	510.54
325.732	512.82
325.958	515.69
326.183	518.18
326.408	521.63
326.633	525.65
326.858	529.36
327.084	531.22
327.309	532.29
327.534	536.03
327.759	539.34
327.984	541.22
328.209	543.47
328.434	544.65
328.659	547.43
328.884	550.69
329.109	550.54
329.334	553.23
329.559	556.94
329.784	561.02
330.009	564.05
330.234	566.16
330.459	569.67
330.684	573.87
330.909	579.09
331.134	582.8
331.359	586.16
331.584	591.65
331.809	595.52
332.034	599.87
332.259	602.69
332.483	607.23
332.708	612.71
332.933	619.12
333.158	623.49
333.383	628.05
333.607	632.38
333.832	638.07
334.057	641.67
334.282	646.78
334.506	652.12
334.731	658.62
334.956	664.98
335.18	670.4
335.405	674.91
335.63	682.16
335.854	687.94
336.079	693.74
336.303	699.12
336.528	705.56
336.753	711.36
336.977	717.67
337.202	723.12
337.426	728.03
337.651	734.4
337.875	740.12
338.1	744.51
338.324	751.34
338.549	758.22
338.773	766.16
338.997	773.82
339.222	781.96
339.446	788.43
339.671	797.16
339.895	804.6
340.119	813
340.344	819.34
340.568	830.4
340.792	837.6
341.017	844.65
341.241	851.34
341.465	858.65
341.689	867.11
341.914	874.69
342.138	881
342.362	889.62
342.586	897.63
342.811	906.49
343.035	912.8
343.259	921.07
343.483	931.2
343.707	940.2
343.931	950.83
344.155	959.94
344.38	968.18
344.604	978.49
344.828	987.25
345.052	995.76
345.276	1006.34
345.5	1014.74
345.724	1026.72
345.948	1035.36
346.172	1044.89
346.396	1054.8
346.62	1064.22
346.844	1074.98
347.068	1084.65
347.292	1096.58
347.515	1109.63
347.739	1120.25
347.963	1132.2
348.187	1140.51
348.411	1150.09
348.635	1160.98
348.859	1171.31
349.082	1180.94
349.306	1191.91
349.53	1203.47
349.754	1212.72
349.977	1219.22
350.201	1229.14
350.425	1240.78
350.649	1251.54
350.872	1263.6
351.096	1272.91
351.32	1283.29
351.543	1295.83
351.767	1308
351.99	1319.09
352.214	1330.38
352.438	1344.05
352.661	1356.27
352.885	1365.23
353.108	1376.69
353.332	1389.32
353.555	1402.74
353.779	1415.25
354.002	1426.78
354.226	1437.25
354.449	1448.72
354.673	1462.42
354.896	1473.36
355.12	1485.16
355.343	1498.69
355.566	1512.83
355.79	1524.32
356.013	1536.42
356.237	1548.69
356.46	1559.91
356.683	1572.52
356.907	1586.52
357.13	1597
357.353	1608.58
357.576	1622.31
357.8	1635.47
358.023	1648.18
358.246	1662.72
358.469	1676.11
358.693	1688.67
358.916	1702.49
359.139	1716.65
359.362	1727.63
359.585	1742.54
359.808	1757.29
360.031	1770.16
360.255	1784.31
360.478	1798.07
360.701	1808.05
360.924	1819.18
361.147	1833.09
361.37	1845.16
361.593	1857.89
361.816	1872.09
362.039	1883.98
362.262	1898.31
362.485	1912.16
362.708	1924.63
362.931	1937.92
363.154	1952.89
363.377	1969.72
363.599	1982.91
363.822	1997.87
364.045	2013.2
364.268	2027.12
364.491	2043.03
364.714	2057.02
364.936	2071
365.159	2083.65
365.382	2098.05
365.605	2114.2
365.828	2130.31
366.05	2144.54
366.273	2164.8
366.496	2179.29
366.718	2195.74
366.941	2210.78
367.164	2226.71
367.386	2241.85
367.609	2259.09
367.832	2274.25
368.054	2290.36
368.277	2304.6
368.5	2321.4
368.722	2333.58
368.945	2350.8
369.167	2367
369.39	2383.54
369.612	2400.22
369.835	2418.05
370.057	2434.8
370.28	2451.05
370.502	2469.94
370.725	2486.07
370.947	2502.87
371.169	2520.82
371.392	2536.58
371.614	2553.78
371.837	2570.09
372.059	2585.14
372.281	2599.76
372.504	2615.07
372.726	2633.02
372.948	2647.47
373.171	2665.16
373.393	2686.83
373.615	2703.63
373.837	2721.25
374.06	2738.74
374.282	2758.27
374.504	2779.2
374.726	2800.22
374.948	2819.96
375.17	2838.98
375.393	2859.74
375.615	2881.71
375.837	2899.02
376.059	2920.49
376.281	2941.54
376.503	2962.03
376.725	2979.52
376.947	2996.74
377.169	3016.71
377.391	3038.4
377.613	3059.62
377.835	3081.31
378.057	3100.03
378.279	3118.22
378.501	3136.6
378.723	3158.27
378.945	3182.02
379.167	3205.09
379.389	3230
379.611	3253.67
379.833	3277.89
380.054	3301.42
380.276	3325.32
380.498	3353
380.72	3377.89
380.942	3403.36
381.163	3428.96
381.385	3452.23
381.607	3478.62
381.829	3505.85
382.05	3533.38
382.272	3558.58
382.494	3582.09
382.716	3604.67
382.937	3628.03
383.159	3654.29
383.381	3683.47
383.602	3706.76
383.824	3735.8
384.045	3762.78
384.267	3786.65
384.488	3813.23
384.71	3838.34
384.932	3866.92
385.153	3894.45
385.375	3920.6
385.596	3947.42
385.818	3972.11
386.039	3998.18
386.261	4023.45
386.482	4050.23
386.703	4076.38
386.925	4099.6
387.146	4127.63
387.368	4156.05
387.589	4186.78
387.81	4214.62
388.032	4245.14
388.253	4272.34
388.474	4305.18
388.696	4332.76
388.917	4362.2
389.138	4391.78
389.359	4421.12
389.581	4448.14
389.802	4481.67
390.023	4510.14
390.244	4540.74
390.465	4567.56
390.687	4596.98
390.908	4627.23
391.129	4660.98
391.35	4692.23
391.571	4724.36
391.792	4757.12
392.013	4787.47
392.234	4815.38
392.455	4847.11
392.677	4878.98
392.898	4913.49
393.119	4951.85
393.34	4981.16
393.561	5010
393.782	5042.43
394.003	5075.72
394.223	5111.38
394.444	5148.92
394.665	5181.34
394.886	5216.12
395.107	5245.56
395.328	5275.27
395.549	5304.51
395.77	5342.27
395.99	5376.98
396.211	5412.6
396.432	5448.45
396.653	5479.14
396.874	5515.94
397.094	5548.18
397.315	5578.76
397.536	5618.49
397.757	5658.38
397.977	5688.63
398.198	5721.52
398.419	5756.74
398.639	5791.47
398.86	5825.03
399.081	5863.31
399.301	5897.67
399.522	5938.22
399.742	5974.31
399.963	6007.69
400.184	6043.74
400.404	6086.65
400.625	6126
400.845	6160.11
401.066	6193.47
401.286	6229.87
401.507	6261.98
401.727	6296.29
401.948	6328.67
402.168	6366.2
402.388	6402.14
402.609	6436.32
402.829	6467.03
403.05	6499.98
403.27	6537.16
403.49	6569.62
403.711	6604.34
403.931	6641.8
404.151	6679.92
404.372	6716.85
404.592	6753.31
404.812	6785.03
405.032	6822.2
405.253	6860.32
405.473	6893.67
405.693	6930.67
405.913	6967.56
406.133	7002.94
406.353	7039.49
406.574	7075.87
406.794	7110.45
407.014	7143.91
407.234	7179.63
407.454	7211.83
407.674	7247.62
407.894	7284.78
408.114	7321.82
408.334	7359.96
408.554	7397.02
408.774	7431.32
408.994	7464.74
409.214	7502.09
409.434	7543.2
409.654	7584.71
409.874	7623.43
410.094	7666.45
410.314	7707.02
410.534	7742.43
410.754	7781.83
410.974	7819.05
411.193	7861.58
411.413	7904.14
411.633	7942.31
411.853	7976.32
412.073	8016.45
412.292	8051.94
412.512	8085.32
412.732	8125.89
412.952	8166.76
413.171	8204.49
413.391	8242.6
413.611	8280.91
413.831	8317.76
414.05	8363.45
414.27	8407.23
414.489	8444
414.709	8487.89
414.929	8532.51
415.148	8574.45
415.368	8616.98
415.587	8665.47
415.807	8715.03
416.026	8756.54
416.246	8803.43
416.465	8842.72
416.685	8890.29
416.904	8933.96
417.124	8978.94
417.343	9024.96
417.563	9071.58
417.782	9118.12
418.002	9162.42
418.221	9201.54
418.44	9246.85
418.66	9284.96
418.879	9333.03
419.098	9366.12
419.318	9412.25
419.537	9456.29
419.756	9498.07
419.976	9532.85
420.195	9575.71
420.414	9615.71
420.633	9656.94
420.853	9700.98
421.072	9746.09
421.291	9786.69
421.51	9838.67
421.729	9884.96
421.948	9933.38
422.168	9975.32
422.387	10025.82
422.606	10069.42
422.825	10112.83
423.044	10164.63
423.263	10204.49
423.482	10251.29
423.701	10300.16
423.92	10345.58
424.139	10386.32
424.358	10427.67
424.577	10478.49
424.796	10520.58
425.015	10567.43
425.234	10613.31
425.453	10656.45
425.672	10706.07
425.891	10752.62
426.11	10795.14
426.328	10838.78
426.547	10887.54
426.766	10936.49
426.985	10979.38
427.204	11024.65
427.422	11071.63
427.641	11123.71
427.86	11169.91
428.079	11217.83
428.297	11264.45
428.516	11315.74
428.735	11365.83
428.954	11413.72
429.172	11463.14
429.391	11508.42
429.61	11561.54
429.828	11608.12
430.047	11654.2
430.265	11698.56
430.484	11746.03
430.703	11792.69
430.921	11839.91
431.14	11881.09
431.358	11929.54
431.577	11972.27
431.795	12017.91
432.014	12059.2
432.232	12108.74
432.451	12151.67
432.669	12201.87
432.887	12249.03
433.106	12295.12
433.324	12337.63
433.543	12393.4
433.761	12442.51
433.979	12486.62
434.198	12543.43
434.416	12598.36
434.634	12646.34
434.853	12696.16
435.071	12747.87
435.289	12796.38
435.507	12845.47
435.726	12895.27
435.944	12937.82
436.162	12980.38
436.38	13029.32
436.598	13072.2
436.817	13116.49
437.035	13161.58
437.253	13205.23
437.471	13247.03
437.689	13291.94
437.907	13341.89
438.125	13383.65
438.343	13430.05
438.561	13483.43
438.78	13536.36
438.998	13582.71
439.216	13630.67
439.434	13673.67
439.652	13725.45
439.869	13774.51
440.087	13821.2
440.305	13864.25
440.523	13916.89
440.741	13966.96
440.959	14017.72
441.177	14065.89
441.395	14116.02
441.613	14165.6
441.831	14217.03
442.048	14264.34
442.266	14307.51
442.484	14359.58
442.702	14410.22
442.919	14455.58
443.137	14502.6
443.355	14547.98
443.573	14590.67
443.79	14639.4
444.008	14687.87
444.226	14737.4
444.443	14784.94
444.661	14836.98
444.879	14884.38
445.096	14927.36
445.314	14980.51
445.532	15025
445.749	15075.03
445.967	15127.32
446.184	15168.51
446.402	15215.11
446.619	15262.05
446.837	15311.71
447.054	15364.16
447.272	15413.78
447.489	15464.14
447.707	15508.27
447.924	15556.47
448.141	15603.71
448.359	15652.14
448.576	15704.56
448.794	15748.89
449.011	15799.74
449.228	15842.89
449.446	15892.78
449.663	15938.58
449.88	15987.09
450.098	16036.52
450.315	16088.89
450.532	16133.67
450.749	16178.6
450.967	16227.83
451.184	16276.67
451.401	16324.52
451.618	16377.27
451.835	16420.69
452.052	16467.6
452.27	16517.16
452.487	16563.85
452.704	16607.74
452.921	16654.25
453.138	16702.74
453.355	16752.49
453.572	16800.02
453.789	16850.36
454.006	16888.02
454.223	16938.49
454.44	16989.16
454.657	17038.32
454.874	17088.87
455.091	17143.87
455.308	17197.62
455.525	17248.14
455.742	17293.45
455.959	17344.85
456.176	17390.76
456.393	17445.29
456.609	17493.43
456.826	17538.82
457.043	17581.96
457.26	17630.36
457.477	17671.56
457.693	17712
457.91	17756.6
458.127	17800.22
458.344	17846.45
458.56	17888.22
458.777	17936.36
458.994	17975.49
459.21	18017.36
459.427	18065.43
459.644	18097.82
459.86	18132
460.077	18162.89
460.294	18194.38
460.51	18229.09
460.727	18256.98
460.943	18288.05
461.16	18320.82
461.376	18350.98
461.593	18388.43
461.809	18419.07
462.026	18466.71
462.242	18511.02
462.459	18559.65
462.675	18603.52
462.892	18639.42
463.108	18682.58
463.324	18721.47
463.541	18765.02
463.757	18810.4
463.974	18855.94
464.19	18897.45
464.406	18932.09
464.623	18983.25
464.839	19030.23
465.055	19072.23
465.271	19123.47
465.488	19171.58
465.704	19221.71
465.92	19268.71
466.136	19321.36
466.353	19366.45
466.569	19423.63
466.785	19477.98
467.001	19523.89
467.217	19573.69
467.433	19635.14
467.649	19696.78
467.865	19755.07
468.082	19817.92
468.298	19878.27
468.514	19935.78
468.73	20007.67
468.946	20078.12
469.162	20148.76
469.378	20212.38
469.594	20277.82
469.81	20341.49
470.026	20405.07
470.242	20472.67
470.457	20537.67
470.673	20596.91
470.889	20673.56
471.105	20734.96
471.321	20787.71
471.537	20854.62
471.753	20927.4
471.968	21000.78
472.184	21072.71
472.4	21150.67
472.616	21214.18
472.832	21285.14
473.047	21367
473.263	21425.96
473.479	21499.09
473.694	21582.72
473.91	21649.65
474.126	21723.31
474.341	21798.52
474.557	21871.94
474.773	21931.11
474.988	22009
475.204	22091.83
475.42	22162.89
475.635	22238.63
475.851	22304.65
476.066	22372.67
476.282	22438.56
476.497	22509.63
476.713	22570.74
476.928	22634.05
477.144	22703.12
477.359	22779.05
477.575	22842.36
477.79	22908.32
478.005	22970.31
478.221	23035.32
478.436	23094.62
478.651	23157.51
478.867	23216.6
479.082	23272.16
479.297	23330.27
479.513	23392.71
479.728	23438.29
479.943	23479.82
480.159	23526.6
480.374	23584.09
480.589	23635.11
480.804	23693.71
481.019	23746
481.235	23791.52
481.45	23846.94
481.665	23902.96
481.88	23951.54
482.095	24006.42
482.31	24065.29
482.525	24127.25
482.741	24179.92
482.956	24230.49
483.171	24277.96
483.386	24329.12
483.601	24375.98
483.816	24419.92
484.031	24463.49
484.246	24499.72
484.461	24538.89
484.676	24582.2
484.891	24620.45
485.105	24664.42
485.32	24709.76
485.535	24750.58
485.75	24787.76
485.965	24830.85
486.18	24876.69
486.395	24914.45
486.609	24970.49
486.824	25007.71
487.039	25047.03
487.254	25087.23
487.469	25121.56
487.683	25163.2
487.898	25199.49
488.113	25241.4
488.327	25277.54
488.542	25304.31
488.757	25344.74
488.972	25371.23
489.186	25416.63
489.401	25456
489.615	25484.56
489.83	25520.96
490.045	25558.58
490.259	25584.87
490.474	25620.16
490.688	25654.2
490.903	25690.62
491.117	25723.98
491.332	25752.27
491.546	25785.62
491.761	25810.89
491.975	25847.83
492.19	25877
492.404	25903.72
492.618	25938.78
492.833	25966.45
493.047	26003.63
493.262	26041.23
493.476	26070.82
493.69	26106.67
493.905	26128.22
494.119	26171.27
494.333	26190.96
494.547	26227.12
494.762	26252.07
494.976	26285.49
495.19	26318.49
495.404	26333.8
495.619	26361.92
495.833	26380.54
496.047	26402.25
496.261	26426.74
496.475	26432.09
496.689	26449.47
496.903	26457.51
497.117	26461.18
497.332	26455.42
497.546	26445.47
497.76	26443.56
497.974	26429.05
498.188	26423.98
498.402	26412.94
498.616	26401.34
498.83	26387.14
499.044	26388
499.258	26379.14
499.472	26373.51
499.685	26381.83
499.899	26392.29
500.113	26403.85
500.327	26419.67
500.541	26430.05
500.755	26443.02
500.969	26459.36
501.183	26477.43
501.396	26495.67
501.61	26518.63
501.824	26543.78
502.038	26554.2
502.251	26574.62
502.465	26591.43
502.679	26602.49
502.892	26621.6
503.106	26647.76
503.32	26666.47
503.533	26689.6
503.747	26715.92
503.961	26734.89
504.174	26762.22
504.388	26797.07
504.602	26828.58
504.815	26873.16
505.029	26916.56
505.242	26965.65
505.456	27007.38
505.669	27051.69
505.883	27105.4
506.096	27148.05
506.31	27203.31
506.523	27249.36
506.736	27302.11
506.95	27349.71
507.163	27394.38
507.377	27444.05
507.59	27495.34
507.803	27548
508.017	27610.4
508.23	27674.38
508.443	27735.49
508.657	27799.71
508.87	27868
509.083	27939.05
509.296	28019.67
509.51	28105.05
509.723	28194.52
509.936	28282.05
510.149	28370.18
510.363	28455.96
510.576	28538.82
510.789	28638.71
511.002	28734.03
511.215	28835.25
511.428	28925.67
511.641	29016.54
511.854	29106.74
512.067	29198.67
512.28	29301.18
512.493	29405.8
512.707	29506.43
512.92	29605.49
513.132	29699.4
513.345	29803.31
513.558	29908.63
513.771	30026.74
513.984	30130.31
514.197	30233.25
514.41	30346.65
514.623	30455.25
514.836	30563.45
515.049	30681.12
515.262	30789.52
515.474	30900.14
515.687	31008.78
515.9	31115.54
516.113	31209.67
516.325	31314.05
516.538	31414.74
516.751	31504.27
516.964	31590.89
517.176	31685.96
517.389	31769.47
517.602	31865.4
517.814	31952.09
518.027	32022.85
518.24	32094.18
518.452	32175.25
518.665	32261.22
518.877	32334.62
519.09	32409.92
519.303	32478.09
519.515	32538.63
519.728	32611.49
519.94	32671.52
520.153	32733.92
520.365	32808.29
520.578	32881.62
520.79	32941.25
521.002	32996.91
521.215	33061.16
521.427	33122.2
521.64	33181.11
521.852	33242.78
522.064	33289.27
522.277	33343.02
522.489	33396.82
522.701	33447.54
522.914	33497.4
523.126	33543.38
523.338	33590.89
523.551	33636.34
523.763	33688.4
523.975	33743.62
524.187	33791.98
524.399	33843.03
524.612	33889.16
524.824	33941.18
525.036	33986.91
525.248	34026.25
525.46	34075.83
525.672	34127.69
525.884	34167.89
526.096	34197.58
526.308	34226.22
526.521	34257.76
526.733	34292.34
526.945	34323
527.157	34355.49
527.369	34377.74
527.581	34410.07
527.793	34435.98
528.004	34458.63
528.216	34505.71
528.428	34542.45
528.64	34580.32
528.852	34612.72
529.064	34638.32
529.276	34670.34
529.488	34691.12
529.699	34721.71
529.911	34745.43
530.123	34777.94
530.335	34802.72
530.547	34826.78
530.758	34864.11
530.97	34890.51
531.182	34916.65
531.393	34948.67
531.605	34983.52
531.817	35021.34
532.029	35050
532.24	35086.85
532.452	35109.42
532.663	35133.94
532.875	35153.92
533.087	35169.67
533.298	35191.12
533.51	35214.36
533.721	35234.27
533.933	35248.34
534.144	35263.42
534.356	35285.18
534.567	35300.67
534.779	35330.72
534.99	35349.49
535.202	35365.78
535.413	35387.58
535.624	35407.38
535.836	35434.45
536.047	35457.45
536.259	35480.67
536.47	35488.12
536.681	35506.89
536.893	35521.42
537.104	35527.87
537.315	35543.58
537.526	35557.83
537.738	35574.12
537.949	35588.67
538.16	35597.78
538.371	35607.63
538.582	35629.6
538.794	35653.6
539.005	35664.6
539.216	35683.82
539.427	35711.27
539.638	35723.6
539.849	35740.52
540.06	35753.6
540.272	35779.74
540.483	35806.56
540.694	35838.36
540.905	35841.78
541.116	35862.23
541.327	35890.74
541.538	35915.98
541.749	35931
541.96	35958.32
542.17	35985.34
542.381	36001.92
542.592	36000.4
542.803	36009.89
543.014	36002.16
543.225	36013
543.436	36017.09
543.647	36014.38
543.857	36006.63
544.068	36018.36
544.279	36022.09
544.49	36020.07
544.701	36024.69
544.911	36043.94
545.122	36046.96
545.333	36056.32
545.543	36069.12
545.754	36066.18
545.965	36079.07
546.175	36094.98
546.386	36095.42
546.597	36112.23
546.807	36122.29
547.018	36143.43
547.229	36144.22
547.439	36153.78
547.65	36172.42
547.86	36175.94
548.071	36192.47
548.281	36208.69
548.492	36221.14
548.702	36226.92
548.913	36228.58
549.123	36232.31
549.333	36224.56
549.544	36233.56
549.754	36238.87
549.965	36246.78
550.175	36262.8
550.385	36290.11
550.596	36303.05
550.806	36316.09
551.016	36327.67
551.227	36346.98
551.437	36363.05
551.647	36379.6
551.857	36394.54
552.068	36414.71
552.278	36427.09
552.488	36426.18
552.698	36415.58
552.908	36418.32
553.119	36415.25
553.329	36430.11
553.539	36427.74
553.749	36437.2
553.959	36439.11
554.169	36442.18
554.379	36436.23
554.589	36429.47
554.799	36448.05
555.009	36461.63
555.219	36462.32
555.429	36478.49
555.639	36478.2
555.849	36479.03
556.059	36472.34
556.269	36477.38
556.479	36479.91
556.689	36490.67
556.899	36497.54
557.109	36496.25
557.319	36497.16
557.528	36502.42
557.738	36488.52
557.948	36472.52
558.158	36467.6
558.368	36468.14
558.577	36461.31
558.787	36447.92
558.997	36437.76
559.207	36434.03
559.416	36427.83
559.626	36416.11
559.836	36399.91
560.045	36400.54
560.255	36411.29
560.465	36413.6
560.674	36410
560.884	36414.42
561.093	36415.54
561.303	36406.76
561.512	36402.23
561.722	36391.83
561.932	36390.47
562.141	36391.27
562.351	36392.54
562.56	36390.58
562.769	36391.36
562.979	36394.36
563.188	36392.62
563.398	36400.89
563.607	36403.52
563.817	36403.4
564.026	36409.22
564.235	36413.74
564.445	36419.38
564.654	36414.22
564.863	36408.16
565.073	36399.51
565.282	36395.07
565.491	36383.83
565.7	36365.4
565.91	36353.71
566.119	36347.51
566.328	36341.65
566.537	36324.23
566.746	36309.27
566.956	36298.98
567.165	36286.83
567.374	36272.67
567.583	36261.8
567.792	36246.92
568.001	36235.36
568.21	36218.05
568.419	36188.96
568.628	36166.67
568.837	36145.8
569.046	36120
569.255	36094.29
569.464	36074.42
569.673	36049.91
569.882	36021.78
570.091	36001.02
570.3	35977.14
570.509	35962.94
570.718	35955.34
570.927	35951.12
571.135	35944.8
571.344	35939.94
571.553	35944.25
571.762	35937.23
571.971	35938.94
572.18	35939
572.388	35933.25
572.597	35928.85
572.806	35922.83
573.014	35909.54
573.223	35879.71
573.432	35861.52
573.641	35849.96
573.849	35815.96
574.058	35790.6
574.266	35763.72
574.475	35734.74
574.684	35722.45
574.892	35704.4
575.101	35692.71
575.309	35690.38
575.518	35681.54
575.726	35674.43
575.935	35651.22
576.143	35646.76
576.352	35634.09
576.56	35624.38
576.769	35610.6
576.977	35590.25
577.186	35583.69
577.394	35562.43
577.602	35538.38
577.811	35511.43
578.019	35485.29
578.228	35476.38
578.436	35456.76
578.644	35439.82
578.852	35425.32
579.061	35407.23
579.269	35384
579.477	35364.47
579.685	35341.36
579.894	35319.83
580.102	35306.98
580.31	35298.25
580.518	35276.16
580.726	35263.31
580.935	35251.85
581.143	35232.05
581.351	35214.05
581.559	35193.32
581.767	35166.29
581.975	35144.23
582.183	35122.25
582.391	35100.91
582.599	35076.56
582.807	35060.07
583.015	35028.52
583.223	35004.47
583.431	34987.78
583.639	34968.72
583.847	34953.51
584.055	34933.96
584.263	34916.85
584.471	34899.65
584.678	34885
584.886	34868.2
585.094	34836.12
585.302	34818
585.51	34791.11
585.718	34770.71
585.925	34750.02
586.133	34737.71
586.341	34725.72
586.549	34706.42
586.756	34694
586.964	34670.12
587.172	34642.31
587.379	34625.63
587.587	34601.56
587.795	34587.51
588.002	34554.4
588.21	34534.76
588.417	34496.22
588.625	34457.2
588.833	34438.58
589.04	34415.96
589.248	34390.51
589.455	34379.02
589.663	34360.2
589.87	34336.98
590.078	34314.45
590.285	34301.89
590.492	34280.23
590.7	34274.12
590.907	34255.69
591.115	34221.36
591.322	34186.02
591.529	34173.74
591.737	34137.82
591.944	34115.62
592.151	34094.52
592.359	34068.47
592.566	34040.42
592.773	34001.42
592.981	33958.54
593.188	33935.74
593.395	33916.09
593.602	33895.43
593.809	33863.31
594.017	33836.76
594.224	33813.91
594.431	33781.76
594.638	33751.74
594.845	33721.69
595.052	33706.32
595.259	33689.47
595.466	33663.12
595.673	33638.54
595.88	33614.07
596.088	33596.31
596.295	33582.83
596.502	33551.85
596.709	33532.74
596.915	33503.54
597.122	33480.85
597.329	33460.27
597.536	33439.78
597.743	33422.29
597.95	33399.45
598.157	33370.03
598.364	33332.89
598.571	33284.02
598.777	33240.78
598.984	33197.76
599.191	33150.47
599.398	33094.32
599.605	33049.11
599.811	32992.8
600.018	32934.32
600.225	32880.54
600.431	32823.76
600.638	32781.38
600.845	32753.51
601.052	32723.43
601.258	32686.4
601.465	32650.56
601.671	32613.96
601.878	32538.67
602.085	32461.85
602.291	32369.49
602.498	32254.11
602.704	32124.85
602.911	31962
603.117	31773.8
603.324	31566
603.53	31349.94
603.737	31128.22
603.943	30884.38
604.15	30643.31
604.356	30397.14
604.562	30139.98
604.769	29883.25
604.975	29623.98
605.181	29365.94
605.388	29107.47
605.594	28848.76
605.8	28586.09
606.007	28316.02
606.213	28049.54
606.419	27770.38
606.625	27499.32
606.832	27235.8
607.038	26962.47
607.244	26687.36
607.45	26413.94
607.656	26142.07
607.863	25856.09
608.069	25577.16
608.275	25295.16
608.481	25011.54
608.687	24734.76
608.893	24442.38
609.099	24151.42
609.305	23871.74
609.511	23588.76
609.717	23303.62
609.923	23006.83
610.129	22719.16
610.335	22426.14
610.541	22128.58
610.747	21825.82
610.953	21523.2
611.159	21219.31
611.365	20905.6
611.571	20589.71
611.776	20275.91
611.982	19954.85
612.188	19638.23
612.394	19316.23
612.6	18991.23
612.806	18664.36
613.011	18338.96
613.217	18011.34
613.423	17687.65
613.628	17367.85
613.834	17050.29
614.04	16737.38
614.246	16422.65
614.451	16114.96
614.657	15820.22
614.862	15528.11
615.068	15252.6
615.274	14982.72
615.479	14717.51
615.685	14450.98
615.89	14196.45
616.096	13940.49
616.301	13673.78
616.507	13417.89
616.712	13156.85
616.918	12896.4
617.123	12628.78
617.329	12352.2
617.534	12070.76
617.74	11790.02
617.945	11515.92
618.15	11212.18
618.356	10740
618.561	9881.65
618.766	8838.85
618.972	7766.22
619.177	6717.09
619.382	5696.43
619.588	4702.36
619.793	4110.99
619.998	3418.41
620.203	2580.06
620.408	1573.29
620.614	582.4
