Data from test1_MAYP1115451__85__10-15-06-176.txt Node

Date: Wed Jun 12 10:15:06 MDT 2024
User: Modes Lab
Spectrometer: MAYP111545
Trigger mode: 0
Integration Time (sec): 8.000000E-3
Scans to average: 5
Electric dark correction enabled: true
Nonlinearity correction enabled: false
Boxcar width: 5
XAxis mode: Wavelengths
Number of Pixels in Spectrum: 2068
>>>>>Begin Spectral Data<<<<<
165.214	163.2
165.449	163.25
165.683	172.71
165.918	181.69
166.152	188.51
166.387	193.9
166.621	126.92
166.856	165.42
167.09	184.15
167.325	208.01
167.559	224.24
167.794	238.59
168.028	246.39
168.263	247.17
168.497	248.04
168.732	248.73
168.966	248.99
169.2	248.86
169.435	250.95
169.669	252.81
169.903	254.02
170.138	255.48
170.372	255.79
170.606	256.62
170.841	257.97
171.075	257.97
171.309	259.22
171.544	261.22
171.778	263.77
172.012	264.32
172.246	266.33
172.48	268.66
172.715	271.37
172.949	274.01
173.183	276.32
173.417	278.13
173.651	279.97
173.885	281.42
174.119	282.33
174.354	283.5
174.588	284.1
174.822	283.37
175.056	282.93
175.29	282.59
175.524	282.3
175.758	281.72
175.992	283.12
176.226	283.52
176.46	283.53
176.694	283.9
176.928	283.99
177.162	285.24
177.396	286.41
177.63	287.82
177.864	289.22
178.097	290.22
178.331	290.53
178.565	290.84
178.799	292.28
179.033	292.42
179.267	293.55
179.5	294.1
179.734	295.21
179.968	295.97
180.202	296.52
180.436	296.62
180.669	297.53
180.903	301.01
181.137	300.99
181.371	300.95
181.604	302.04
181.838	303.62
182.072	306.26
182.305	307.53
182.539	308.81
182.772	310.33
183.006	311.72
183.24	312.57
183.473	314.9
183.707	316.44
183.94	317.39
184.174	318.92
184.408	319.15
184.641	318.02
184.875	319.72
185.108	321.32
185.342	322.39
185.575	323.57
185.808	325.46
186.042	323.57
186.275	324.12
186.509	325.93
186.742	328.15
186.976	329.52
187.209	330.92
187.442	330.5
187.676	332.06
187.909	333.59
188.142	335.41
188.376	335.48
188.609	338.44
188.842	340.24
189.076	342.61
189.309	343.32
189.542	344.72
189.775	346.66
190.009	348.55
190.242	349.84
190.475	351.61
190.708	353.22
190.941	355.3
191.174	356.82
191.408	359.57
191.641	360.21
191.874	361.82
192.107	364.64
192.34	367.35
192.573	369.81
192.806	371.82
193.039	372.84
193.272	374.77
193.505	377.24
193.738	378.02
193.971	379.5
194.204	381.82
194.437	383.84
194.67	385.48
194.903	386.84
195.136	388.01
195.369	390.3
195.602	392.66
195.835	395.04
196.068	396.88
196.301	399.79
196.533	401.1
196.766	402.72
196.999	404.64
197.232	405.82
197.465	407.5
197.698	409.53
197.93	410.79
198.163	412.79
198.396	414.93
198.629	418.01
198.861	419.26
199.094	421.68
199.327	422.99
199.559	425.42
199.792	428.52
200.025	430.9
200.257	434.86
200.49	437.32
200.723	439.53
200.955	439.99
201.188	441.53
201.42	444.1
201.653	447.26
201.886	450.88
202.118	453.52
202.351	455.93
202.583	458.37
202.816	459.32
203.048	461.33
203.281	463.84
203.513	467.35
203.745	469.06
203.978	470.57
204.21	472.24
204.443	473.33
204.675	475.22
204.907	476.88
205.14	479.77
205.372	481.68
205.605	483.64
205.837	486.55
206.069	488.5
206.302	491.33
206.534	494.52
206.766	496.62
206.998	500.19
207.231	503.13
207.463	504.97
207.695	508.39
207.927	511.08
208.159	513.81
208.392	513.62
208.624	516.81
208.856	518.88
209.088	521.13
209.32	523.21
209.552	525.68
209.784	526.62
210.017	528.9
210.249	529.46
210.481	531.17
210.713	532.66
210.945	536.28
211.177	537.82
211.409	539.35
211.641	541.1
211.873	542.82
212.105	543.95
212.337	547.3
212.569	549.21
212.801	551.97
213.033	555.17
213.264	558.26
213.496	559.39
213.728	560.48
213.96	562.93
214.192	563.68
214.424	565.41
214.656	567.55
214.887	568.48
215.119	572.08
215.351	572.73
215.583	572.73
215.815	574.48
216.046	577.79
216.278	579.1
216.51	580.5
216.741	582.84
216.973	584.72
217.205	584.7
217.436	586.92
217.668	588.48
217.9	588.68
218.131	590.21
218.363	591.92
218.595	593.02
218.826	594.06
219.058	595.9
219.289	596.19
219.521	597.97
219.752	600.53
219.984	600.44
220.215	599.48
220.447	602.48
220.678	604.79
220.91	605.7
221.141	607.35
221.373	608.77
221.604	610.32
221.836	613.01
222.067	614.37
222.298	614.3
222.53	617.24
222.761	619.44
222.993	620.55
223.224	621.44
223.455	622.24
223.686	622.08
223.918	624.17
224.149	625.01
224.38	625.73
224.612	625.64
224.843	627.95
225.074	627.81
225.305	628.55
225.536	628.62
225.768	629.39
225.999	629.62
226.23	629.7
226.461	629.59
226.692	629.1
226.923	629.28
227.155	632.46
227.386	633.19
227.617	633.17
227.848	633.46
228.079	634.92
228.31	634.04
228.541	634.35
228.772	636.24
229.003	638.12
229.234	637.88
229.465	639.13
229.696	637.99
229.927	637.46
230.158	637.93
230.389	637.17
230.62	636.39
230.85	637.33
231.081	636.22
231.312	635.7
231.543	634.95
231.774	635.62
232.005	634.02
232.236	634.06
232.466	634.82
232.697	634.9
232.928	635.22
233.159	634.97
233.389	635.06
233.62	635.46
233.851	635.77
234.082	635.48
234.312	635.86
234.543	636.33
234.774	635.61
235.004	634.46
235.235	635.39
235.466	636.21
235.696	636.79
235.927	637.61
236.157	637.24
236.388	636.99
236.618	636.64
236.849	635.41
237.08	635.1
237.31	634.84
237.541	634.73
237.771	632.15
238.002	631.79
238.232	631.5
238.463	630.5
238.693	632.52
238.923	633.28
239.154	633.22
239.384	633.12
239.615	634.12
239.845	633.21
240.075	632.99
240.306	634.01
240.536	634.04
240.766	632.81
240.997	632.72
241.227	631.81
241.457	628.82
241.687	628.02
241.918	628.41
242.148	626.68
242.378	625.57
242.608	625.01
242.839	624.32
243.069	622.77
243.299	622.39
243.529	622.13
243.759	621.68
243.989	622.35
244.22	621.92
244.45	621.33
244.68	621.62
244.91	623.15
245.14	623.17
245.37	621.59
245.6	621.28
245.83	621.44
246.06	621.37
246.29	620.24
246.52	618.55
246.75	619.01
246.98	619.26
247.21	618.39
247.44	616.32
247.67	615.72
247.9	616.72
248.13	615.62
248.359	615.17
248.589	613.28
248.819	612.84
249.049	613.9
249.279	612.82
249.509	612.28
249.738	612.15
249.968	611.01
250.198	610.62
250.428	609.9
250.657	609.22
250.887	608.64
251.117	609.22
251.347	607.75
251.576	606.5
251.806	606.68
252.036	605.26
252.265	603.99
252.495	604.28
252.725	602.53
252.954	601.73
253.184	601.13
253.413	600.5
253.643	598.73
253.873	598.97
254.102	598.77
254.332	596.1
254.561	595.57
254.791	596.53
255.02	596.64
255.25	597.82
255.479	597.33
255.708	597.5
255.938	596.52
256.167	595.88
256.397	595.04
256.626	593.68
256.856	594.02
257.085	592.59
257.314	591.21
257.544	590.32
257.773	589.88
258.002	589.52
258.232	587.9
258.461	587.32
258.69	586.24
258.919	584.48
259.149	583.73
259.378	583.3
259.607	583.86
259.836	582.44
260.065	582.01
260.295	580.22
260.524	579.44
260.753	580.12
260.982	579.33
261.211	580.55
261.44	579.62
261.669	578.73
261.899	577.08
262.128	575.46
262.357	575.48
262.586	573.62
262.815	573.7
263.044	573.12
263.273	575.28
263.502	574.88
263.731	572.12
263.96	572.28
264.189	572.04
264.418	571.79
264.646	569.99
264.875	568.48
265.104	568.22
265.333	565.57
265.562	563.7
265.791	559.15
266.02	557.82
266.249	557.48
266.477	556.32
266.706	554.08
266.935	553.64
267.164	554.22
267.393	552.86
267.621	552.24
267.85	552.5
268.079	552.41
268.307	551.53
268.536	550.46
268.765	550.17
268.993	550.33
269.222	551.52
269.451	551.26
269.679	550.86
269.908	551.61
270.137	551.01
270.365	551.28
270.594	551.26
270.822	551.44
271.051	552.7
271.279	553.99
271.508	554.59
271.736	555.1
271.965	555.39
272.193	555.3
272.422	555.44
272.65	556.04
272.879	555.72
273.107	555.61
273.336	555.66
273.564	555.28
273.792	552.77
274.021	550.81
274.249	548.92
274.477	547.88
274.706	546.66
274.934	544.84
275.162	543.86
275.391	542.53
275.619	541.99
275.847	540.33
276.075	538.04
276.304	537.24
276.532	537.33
276.76	536.64
276.988	535.35
277.216	535.37
277.445	534.86
277.673	533.5
277.901	533.13
278.129	531.62
278.357	530.42
278.585	530.17
278.813	530.02
279.041	528.12
279.269	527.19
279.497	526.88
279.725	525.42
279.954	524.37
280.182	523.77
280.41	521.41
280.637	520.33
280.865	521.44
281.093	521.06
281.321	520.35
281.549	520.95
281.777	521.59
282.005	520.48
282.233	519.26
282.461	520.7
282.689	520.59
282.916	522.13
283.144	523.13
283.372	521.02
283.6	520.77
283.828	520.95
284.055	520.22
284.283	518.48
284.511	518.12
284.739	518.75
284.966	515.82
285.194	514.7
285.422	513.08
285.649	510.93
285.877	511.52
286.105	510.04
286.332	509.99
286.56	509.33
286.788	509.3
287.015	509.02
287.243	507.66
287.47	506.53
287.698	506.57
287.925	506.52
288.153	505.55
288.381	504.24
288.608	504.55
288.836	503.5
289.063	503.92
289.29	504.28
289.518	504.01
289.745	505.19
289.973	505.97
290.2	505.84
290.428	505.7
290.655	506.01
290.882	505.21
291.11	504.24
291.337	502.86
291.564	500.97
291.792	499.46
292.019	498.77
292.246	496.75
292.473	496.84
292.701	495.73
292.928	493.77
293.155	494.73
293.382	494.28
293.61	493.72
293.837	493.08
294.064	491.62
294.291	490.39
294.518	488.73
294.745	488.06
294.972	486.99
295.2	486.08
295.427	487.5
295.654	486.48
295.881	486.04
296.108	485.39
296.335	484.79
296.562	485.02
296.789	484.26
297.016	484.75
297.243	483.57
297.47	483.21
297.697	482.53
297.924	480.88
298.151	479.7
298.378	479.82
298.604	478.97
298.831	477.73
299.058	477.7
299.285	478.02
299.512	477.21
299.739	478.21
299.966	478.22
300.192	477.46
300.419	477.55
300.646	476.08
300.873	474.57
301.099	475.73
301.326	476.3
301.553	475.77
301.78	475.41
302.006	475.13
302.233	474.59
302.46	473.48
302.686	474.21
302.913	473.1
303.14	473.97
303.366	474.55
303.593	471.84
303.819	471.13
304.046	471.13
304.272	471.46
304.499	471.62
304.725	470.72
304.952	469.97
305.179	468.75
305.405	469.66
305.631	468.39
305.858	468.57
306.084	469.82
306.311	469.62
306.537	469.12
306.764	468.48
306.99	467.75
307.216	467.48
307.443	466.75
307.669	467.3
307.895	465.21
308.122	464.9
308.348	464.3
308.574	463.9
308.801	463.61
309.027	463.08
309.253	462.21
309.479	461.68
309.706	461.79
309.932	462.42
310.158	461.53
310.384	461.92
310.61	462.41
310.837	461.12
311.063	460.73
311.289	460.19
311.515	459.97
311.741	459.68
311.967	459.79
312.193	459.3
312.419	459.28
312.645	459.79
312.871	460.13
313.097	460.1
313.323	460.81
313.549	461.82
313.775	461.9
314.001	462.55
314.227	462.66
314.453	463.32
314.679	463.33
314.905	463.5
315.131	463.52
315.357	463.46
315.583	464.1
315.809	464.22
316.034	464.33
316.26	464.73
316.486	464.75
316.712	465.73
316.938	465.19
317.163	465.28
317.389	466.15
317.615	466.35
317.841	465.62
318.066	465.33
318.292	465.97
318.518	465.15
318.743	466.01
318.969	466.72
319.195	467.42
319.42	468.99
319.646	470.5
319.872	470.75
320.097	471.66
320.323	473.68
320.548	475.55
320.774	476.73
320.999	479.28
321.225	480.55
321.45	481.61
321.676	482.68
321.901	484.12
322.127	485.28
322.352	486.82
322.578	488.02
322.803	489.01
323.029	490.24
323.254	491.88
323.479	492.59
323.705	493.5
323.93	495.06
324.155	496.86
324.381	497.32
324.606	499.04
324.831	501.01
325.057	502.79
325.282	506.24
325.507	509.19
325.732	511.72
325.958	515.19
326.183	518.9
326.408	520.84
326.633	524.08
326.858	527.39
327.084	531.01
327.309	533.46
327.534	537.39
327.759	539.39
327.984	541.73
328.209	544.86
328.434	547.1
328.659	550.39
328.884	554.44
329.109	556.66
329.334	561.1
329.559	564.32
329.784	567.15
330.009	569.52
330.234	572.95
330.459	574.79
330.684	577.57
330.909	580.3
331.134	582.7
331.359	586.01
331.584	591.53
331.809	593.5
332.034	596.52
332.259	601.59
332.483	607.01
332.708	612.55
332.933	618.13
333.158	622.59
333.383	628.19
333.607	633.41
333.832	639.52
334.057	642.33
334.282	648.37
334.506	653.93
334.731	658.57
334.956	662.81
335.18	667.19
335.405	672.79
335.63	679.84
335.854	685.66
336.079	692.28
336.303	697.82
336.528	703.75
336.753	708.52
336.977	715.7
337.202	722.35
337.426	729.84
337.651	736.37
337.875	742.44
338.1	747.19
338.324	753.77
338.549	760.53
338.773	766.84
338.997	775.33
339.222	782.35
339.446	789.44
339.671	796.13
339.895	802.26
340.119	810.13
340.344	817.66
340.568	825.97
340.792	833.06
341.017	839.73
341.241	848.37
341.465	855.01
341.689	864.5
341.914	871.64
342.138	880.68
342.362	889.97
342.586	897.48
342.811	906.42
343.035	914.24
343.259	923.72
343.483	932.35
343.707	941.06
343.931	951.7
344.155	960.52
344.38	971.08
344.604	979.06
344.828	988.92
345.052	1000.26
345.276	1011.37
345.5	1022.06
345.724	1031.7
345.948	1041.24
346.172	1049.97
346.396	1058.57
346.62	1069.53
346.844	1079.5
347.068	1089.88
347.292	1099.24
347.515	1108.39
347.739	1118.81
347.963	1129.44
348.187	1140.84
348.411	1152.48
348.635	1163.57
348.859	1174.82
349.082	1182.26
349.306	1189.7
349.53	1201.92
349.754	1211.33
349.977	1221.52
350.201	1229.42
350.425	1239.64
350.649	1251.48
350.872	1262.92
351.096	1273.55
351.32	1284.93
351.543	1298.57
351.767	1311.22
351.99	1319.97
352.214	1333.82
352.438	1344.62
352.661	1355.88
352.885	1367.99
353.108	1378.28
353.332	1389.72
353.555	1401.46
353.779	1414.41
354.002	1424.66
354.226	1437.26
354.449	1452.26
354.673	1462.81
354.896	1476.79
355.12	1490.21
355.343	1503.08
355.566	1515.64
355.79	1525.99
356.013	1537.84
356.237	1548.44
356.46	1563.28
356.683	1577.21
356.907	1589.04
357.13	1602.12
357.353	1612.72
357.576	1627.44
357.8	1637.93
358.023	1649.04
358.246	1664.35
358.469	1679.53
358.693	1692.92
358.916	1705.3
359.139	1716.5
359.362	1726.12
359.585	1738.95
359.808	1751.77
360.031	1763.24
360.255	1778.46
360.478	1791.15
360.701	1804.3
360.924	1815.92
361.147	1829.73
361.37	1845.5
361.593	1860.62
361.816	1878.64
362.039	1892.01
362.262	1907.86
362.485	1920.77
362.708	1931.77
362.931	1945.55
363.154	1957.08
363.377	1969.95
363.599	1982.66
363.822	1993.33
364.045	2006.28
364.268	2017.7
364.491	2032.24
364.714	2047.97
364.936	2062.17
365.159	2079.33
365.382	2094.32
365.605	2112.24
365.828	2130.75
366.05	2145.95
366.273	2163.73
366.496	2178.53
366.718	2195.53
366.941	2211.57
367.164	2224.3
367.386	2241.73
367.609	2256.5
367.832	2271.73
368.054	2284.35
368.277	2296.53
368.5	2313.13
368.722	2328.7
368.945	2344.41
369.167	2362.26
369.39	2378.52
369.612	2396.46
369.835	2412.88
370.057	2431.55
370.28	2451.42
370.502	2469.75
370.725	2490.35
370.947	2507.68
371.169	2523.37
371.392	2542.37
371.614	2555.3
371.837	2572.39
372.059	2588.97
372.281	2605.24
372.504	2620.44
372.726	2635.95
372.948	2652.19
373.171	2668.19
373.393	2682.88
373.615	2702.04
373.837	2718.53
374.06	2739.39
374.282	2757.79
374.504	2775.79
374.726	2796.77
374.948	2817.88
375.17	2836.99
375.393	2860.19
375.615	2878.15
375.837	2899.99
376.059	2917.13
376.281	2936.22
376.503	2957.44
376.725	2977.08
376.947	2998.13
377.169	3014.12
377.391	3031.7
377.613	3054.84
377.835	3075.7
378.057	3099.37
378.279	3121.32
378.501	3143.33
378.723	3166.22
378.945	3187.15
379.167	3209.61
379.389	3230.19
379.611	3255.82
379.833	3281.37
380.054	3302.84
380.276	3324.9
380.498	3348.44
380.72	3372.26
380.942	3398.17
381.163	3423.28
381.385	3446.08
381.607	3471.24
381.829	3496.55
382.05	3524.37
382.272	3547.92
382.494	3576.37
382.716	3599.93
382.937	3626.01
383.159	3651.17
383.381	3676.17
383.602	3702.08
383.824	3728.35
384.045	3756.99
384.267	3785.3
384.488	3808.08
384.71	3831.62
384.932	3855.1
385.153	3881.82
385.375	3907.79
385.596	3934.75
385.818	3962.57
386.039	3991.22
386.261	4017.22
386.482	4042.82
386.703	4070.39
386.925	4099.08
387.146	4132.06
387.368	4159.48
387.589	4190.99
387.81	4218.95
388.032	4249.35
388.253	4277.72
388.474	4303.93
388.696	4335.01
388.917	4362.19
389.138	4395.79
389.359	4424.17
389.581	4451.46
389.802	4483.7
390.023	4514.06
390.244	4544.13
390.465	4571.35
390.687	4598.64
390.908	4631.97
391.129	4663.93
391.35	4700.21
391.571	4727.5
391.792	4759.61
392.013	4793.04
392.234	4823.21
392.455	4854.86
392.677	4888.3
392.898	4924.13
393.119	4957.77
393.34	4991.66
393.561	5027.77
393.782	5056.62
394.003	5093.32
394.223	5127.42
394.444	5160.13
394.665	5195.26
394.886	5229.08
395.107	5265.22
395.328	5297.7
395.549	5333.95
395.77	5365.04
395.99	5395.5
396.211	5433.72
396.432	5464.39
396.653	5498.95
396.874	5531.79
397.094	5565.46
397.315	5597.06
397.536	5628.77
397.757	5664.19
397.977	5700.97
398.198	5735.32
398.419	5772.19
398.639	5804.64
398.86	5838.75
399.081	5873.24
399.301	5912.21
399.522	5947.42
399.742	5983.82
399.963	6021.73
400.184	6055.32
400.404	6087.92
400.625	6125.15
400.845	6159.59
401.066	6193.62
401.286	6229.92
401.507	6262.99
401.727	6298.33
401.948	6335.53
402.168	6371.26
402.388	6399.7
402.609	6432.9
402.829	6466.46
403.05	6500.06
403.27	6535.77
403.49	6573.42
403.711	6608.77
403.931	6647.42
404.151	6677.81
404.372	6710.72
404.592	6747.79
404.812	6785.79
405.032	6823.55
405.253	6860.68
405.473	6893.15
405.693	6926.24
405.913	6961.68
406.133	6993.46
406.353	7030.95
406.574	7068.97
406.794	7104.61
407.014	7143.88
407.234	7183.22
407.454	7216.28
407.674	7257.42
407.894	7300.79
408.114	7341.13
408.334	7379.46
408.554	7420.92
408.774	7456.82
408.994	7500.04
409.214	7539.35
409.434	7570.97
409.654	7608.41
409.874	7651.46
410.094	7686.12
410.314	7720.24
410.534	7757.9
410.754	7792.5
410.974	7827.08
411.193	7863.37
411.413	7895.32
411.633	7926.84
411.853	7964.17
412.073	8004.86
412.292	8039.88
412.512	8073.7
412.732	8112.59
412.952	8147.42
413.171	8190.33
413.391	8235.88
413.611	8277.72
413.831	8323.75
414.05	8369.13
414.27	8414.5
414.489	8453.22
414.709	8499.93
414.929	8547.3
415.148	8593.22
415.368	8641.86
415.587	8683.62
415.807	8725.04
416.026	8766.37
416.246	8808.61
416.465	8852.73
416.685	8896.84
416.904	8940.06
417.124	8982.15
417.343	9024.24
417.563	9067.22
417.782	9110.55
418.002	9157.01
418.221	9199.41
418.44	9245.53
418.66	9284.24
418.879	9325.06
419.098	9367.08
419.318	9412.17
419.537	9453.01
419.756	9497.64
419.976	9538.61
420.195	9579.66
420.414	9619.42
420.633	9662.7
420.853	9704.17
421.072	9747.79
421.291	9795.24
421.51	9835.17
421.729	9877.17
421.948	9929.22
422.168	9973.12
422.387	10013.02
422.606	10055.32
422.825	10099.7
423.044	10140.04
423.263	10189.57
423.482	10237.77
423.701	10281.59
423.92	10328.84
424.139	10373.21
424.358	10410.72
424.577	10457.28
424.796	10508.81
425.015	10558.57
425.234	10605.06
425.453	10659.62
425.672	10698.17
425.891	10741.77
426.11	10785.35
426.328	10836.1
426.547	10878.46
426.766	10925.19
426.985	10968.81
427.204	11014.93
427.422	11059.08
427.641	11100.75
427.86	11144.41
428.079	11200.1
428.297	11249.77
428.516	11301.39
428.735	11346.32
428.954	11402.44
429.172	11449.12
429.391	11500.42
429.61	11551.39
429.828	11591.32
430.047	11641.12
430.265	11685.9
430.484	11728.9
430.703	11770.99
430.921	11814.77
431.14	11860.3
431.358	11899.15
431.577	11946.04
431.795	11992.22
432.014	12033.61
432.232	12090.57
432.451	12136.21
432.669	12182.75
432.887	12234.28
433.106	12282.9
433.324	12334.32
433.543	12383.02
433.761	12438.44
433.979	12493.3
434.198	12541.59
434.416	12593.81
434.634	12642.24
434.853	12693.41
435.071	12742.75
435.289	12789.39
435.507	12842.53
435.726	12888.35
435.944	12933.59
436.162	12973.42
436.38	13012.61
436.598	13057.62
436.817	13102.77
437.035	13146.01
437.253	13196.42
437.471	13241.59
437.689	13281.02
437.907	13322.68
438.125	13365.37
438.343	13415.75
438.561	13467.32
438.78	13521.13
438.998	13569.15
439.216	13612.77
439.434	13658.17
439.652	13703.37
439.869	13754.06
440.087	13804.86
440.305	13857.81
440.523	13904.57
440.741	13950.42
440.959	13997.62
441.177	14046.7
441.395	14100.86
441.613	14151.26
441.831	14206.17
442.048	14250.28
442.266	14298.92
442.484	14346.41
442.702	14397.06
442.919	14451.44
443.137	14500.42
443.355	14553.06
443.573	14599.04
443.79	14645.46
444.008	14694.04
444.226	14735.12
444.443	14780.7
444.661	14830.92
444.879	14879.62
445.096	14922.97
445.314	14972.97
445.532	15021.84
445.749	15069.01
445.967	15118.68
446.184	15168.26
446.402	15218.1
446.619	15272.44
446.837	15322.01
447.054	15365.86
447.272	15410.73
447.489	15456.73
447.707	15508.02
447.924	15554.35
448.141	15606.72
448.359	15654.68
448.576	15695.81
448.794	15748.22
449.011	15796.86
449.228	15852.79
449.446	15905.42
449.663	15955.24
449.88	16004.46
450.098	16047.57
450.315	16100.32
450.532	16140.62
450.749	16189.75
450.967	16241.28
451.184	16284.33
451.401	16328.12
451.618	16375.17
451.835	16423.5
452.052	16476.62
452.27	16527.08
452.487	16576.3
452.704	16623.61
452.921	16673.82
453.138	16721.44
453.355	16767.44
453.572	16814.37
453.789	16863.01
454.006	16909.86
454.223	16956.72
454.44	17004.13
454.657	17054.77
454.874	17098.24
455.091	17144.9
455.308	17191.66
455.525	17236.32
455.742	17287.9
455.959	17335.66
456.176	17380.88
456.393	17424.04
456.609	17470.26
456.826	17510.53
457.043	17550.68
457.26	17602.72
457.477	17654.21
457.693	17700.13
457.91	17740.37
458.127	17779.44
458.344	17821.26
458.56	17868.1
458.777	17914.48
458.994	17951.9
459.21	17994.13
459.427	18028.9
459.644	18059.13
459.86	18091.42
460.077	18131.42
460.294	18174.46
460.51	18213.22
460.727	18250.37
460.943	18287.35
461.16	18319.44
461.376	18357.61
461.593	18400.32
461.809	18445.82
462.026	18495.53
462.242	18533.97
462.459	18572.26
462.675	18609.48
462.892	18649.77
463.108	18692.41
463.324	18739.44
463.541	18784.22
463.757	18820.61
463.974	18857.44
464.19	18901.22
464.406	18939.82
464.623	18987.92
464.839	19029.86
465.055	19083.5
465.271	19132.81
465.488	19179.21
465.704	19221.17
465.92	19271.66
466.136	19328.64
466.353	19383.7
466.569	19434.64
466.785	19495.55
467.001	19544.73
467.217	19602.77
467.433	19654.79
467.649	19706.5
467.865	19765.24
468.082	19830.32
468.298	19885.97
468.514	19946.32
468.73	20013.7
468.946	20081.19
469.162	20139.66
469.378	20202.41
469.594	20261.81
469.81	20322.64
470.026	20393.19
470.242	20456.5
470.457	20519.82
470.673	20592.37
470.889	20664.3
471.105	20728.15
471.321	20792.93
471.537	20854.01
471.753	20920.75
471.968	20993.32
472.184	21060.24
472.4	21135.79
472.616	21207.19
472.832	21281.88
473.047	21354.79
473.263	21419.97
473.479	21496.3
473.694	21566.26
473.91	21646.35
474.126	21719.84
474.341	21800.33
474.557	21879.19
474.773	21942.13
474.988	22016.73
475.204	22086.61
475.42	22162.1
475.635	22236.95
475.851	22300.12
476.066	22369.33
476.282	22434.59
476.497	22506.3
476.713	22569.17
476.928	22633.13
477.144	22702.1
477.359	22772.99
477.575	22829.81
477.79	22882.82
478.005	22949.46
478.221	23012.42
478.436	23077.82
478.651	23140.21
478.867	23198.35
479.082	23259.35
479.297	23319.48
479.513	23378.24
479.728	23426.9
479.943	23480.28
480.159	23537.41
480.374	23585.86
480.589	23641.46
480.804	23694.62
481.019	23737.88
481.235	23798.62
481.45	23841.81
481.665	23892.59
481.88	23942.52
482.095	24005.77
482.31	24051.99
482.525	24103.06
482.741	24156.68
482.956	24206.84
483.171	24250.21
483.386	24308.73
483.601	24343.86
483.816	24392.7
484.031	24443.93
484.246	24495.97
484.461	24532.52
484.676	24587.95
484.891	24635.55
485.105	24678.95
485.32	24719.97
485.535	24766.95
485.75	24809.08
485.965	24859.21
486.18	24901.12
486.395	24937.12
486.609	24972.44
486.824	25016.68
487.039	25058.92
487.254	25098.3
487.469	25144.42
487.683	25184.79
487.898	25223.08
488.113	25261.72
488.327	25290.99
488.542	25331.97
488.757	25363.59
488.972	25395.44
489.186	25426.46
489.401	25458.62
489.615	25498.37
489.83	25523.93
490.045	25561.1
490.259	25597.3
490.474	25630.75
490.688	25668.41
490.903	25699.73
491.117	25735.88
491.332	25769.01
491.546	25802.84
491.761	25835.79
491.975	25865.39
492.19	25896.77
492.404	25934.44
492.618	25964.55
492.833	25992.04
493.047	26021.75
493.262	26059.68
493.476	26089.46
493.69	26126.12
493.905	26149.13
494.119	26180.01
494.333	26198.48
494.547	26226.68
494.762	26247.46
494.976	26276.13
495.19	26308.22
495.404	26340.01
495.619	26365.06
495.833	26391.88
496.047	26408.21
496.261	26434.52
496.475	26443.72
496.689	26457.81
496.903	26470.22
497.117	26462.82
497.332	26455.73
497.546	26447.37
497.76	26438.13
497.974	26420.3
498.188	26420.46
498.402	26406.41
498.616	26397.81
498.83	26392.66
499.044	26388.08
499.258	26382.97
499.472	26391.44
499.685	26404.46
499.899	26408.7
500.113	26419.44
500.327	26433.19
500.541	26428.81
500.755	26445.37
500.969	26458.68
501.183	26479.55
501.396	26498.15
501.61	26513.28
501.824	26526.88
502.038	26545.3
502.251	26563.26
502.465	26578.77
502.679	26597.55
502.892	26627.08
503.106	26653.35
503.32	26678.88
503.533	26696.17
503.747	26719.21
503.961	26747.88
504.174	26771.9
504.388	26794.41
504.602	26835.22
504.815	26878.19
505.029	26907.12
505.242	26947.08
505.456	26989.64
505.669	27034.48
505.883	27090.86
506.096	27139.42
506.31	27194.77
506.523	27257.52
506.736	27315.22
506.95	27357.64
507.163	27395.41
507.377	27463.21
507.59	27519.42
507.803	27579.79
508.017	27636.88
508.23	27690.99
508.443	27758.62
508.657	27825.97
508.87	27891.28
509.083	27955.95
509.296	28035.92
509.51	28120.75
509.723	28201.44
509.936	28284.95
510.149	28360.97
510.363	28450.92
510.576	28535.59
510.789	28625.46
511.002	28715.42
511.215	28810.21
511.428	28913.95
511.641	29011.9
511.854	29115.79
512.067	29214.08
512.28	29316.61
512.493	29422.21
512.707	29521.88
512.92	29628.77
513.132	29732.9
513.345	29835.15
513.558	29943.61
513.771	30036.06
513.984	30139.32
514.197	30241.08
514.41	30351.82
514.623	30452.21
514.836	30560.35
515.049	30667.95
515.262	30778.24
515.474	30877.62
515.687	30983.64
515.9	31087.46
516.113	31198.12
516.325	31302.39
516.538	31394.68
516.751	31493.32
516.964	31589.5
517.176	31686.48
517.389	31774.44
517.602	31866.81
517.814	31958.79
518.027	32038.81
518.24	32113.81
518.452	32187.55
518.665	32270.44
518.877	32359.39
519.09	32422.1
519.303	32501.17
519.515	32575.17
519.728	32644.81
519.94	32705.1
520.153	32764.37
520.365	32828.99
520.578	32896.35
520.79	32965.81
521.002	33025.77
521.215	33088.73
521.427	33149.64
521.64	33198.88
521.852	33243.7
522.064	33297.02
522.277	33357.93
522.489	33418.08
522.701	33466.42
522.914	33512.61
523.126	33556.22
523.338	33600.97
523.551	33643.75
523.763	33697.64
523.975	33740.97
524.187	33793.08
524.399	33838.92
524.612	33883.82
524.824	33929.55
525.036	33984.19
525.248	34038.12
525.46	34091.08
525.672	34143.21
525.884	34177.81
526.096	34207.53
526.308	34254.53
526.521	34286.5
526.733	34326.48
526.945	34354.13
527.157	34380.79
527.369	34404.26
527.581	34428.95
527.793	34456.06
528.004	34478.01
528.216	34511.73
528.428	34550.84
528.64	34577.39
528.852	34603.95
529.064	34629.15
529.276	34663.72
529.488	34699.55
529.699	34729.57
529.911	34756.59
530.123	34786.13
530.335	34816.33
530.547	34847.79
530.758	34879.68
530.97	34909.41
531.182	34943.48
531.393	34972.53
531.605	35009.06
531.817	35038.95
532.029	35069.39
532.24	35099.19
532.452	35116.39
532.663	35140.75
532.875	35159.73
533.087	35176.44
533.298	35203.1
533.51	35230.62
533.721	35246.02
533.933	35249.46
534.144	35274.72
534.356	35292.77
534.567	35312.9
534.779	35337.35
534.99	35351.1
535.202	35375.84
535.413	35394.68
535.624	35408.13
535.836	35427.61
536.047	35455.04
536.259	35481.39
536.47	35493.77
536.681	35515.66
536.893	35533.1
537.104	35558.52
537.315	35590.55
537.526	35603.72
537.738	35611.39
537.949	35635.32
538.16	35642.5
538.371	35654.81
538.582	35671.92
538.794	35690.73
539.005	35694.48
539.216	35711.93
539.427	35728.46
539.638	35737.01
539.849	35754.41
540.06	35789.02
540.272	35803.12
540.483	35826.86
540.694	35845.81
540.905	35865.44
541.116	35878.5
541.327	35913.01
541.538	35918.93
541.749	35930.9
541.96	35946.15
542.17	35963.88
542.381	35963.7
542.592	35965.75
542.803	35973.57
543.014	35976.93
543.225	35976.39
543.436	35968.5
543.647	35969.88
543.857	35988.72
544.068	35998.04
544.279	36000.42
544.49	36005.17
544.701	36017.15
544.911	36037.97
545.122	36050.72
545.333	36070.13
545.543	36087.17
545.754	36111.53
545.965	36122.46
546.175	36128.24
546.386	36132.64
546.597	36151.1
546.807	36164.42
547.018	36168.26
547.229	36181.41
547.439	36193.15
547.65	36196.41
547.86	36203.04
548.071	36206.06
548.281	36205.5
548.492	36204.48
548.702	36210.1
548.913	36202.59
549.123	36201.28
549.333	36211.97
549.544	36209.02
549.754	36204.97
549.965	36221.93
550.175	36227.15
550.385	36258.82
550.596	36270.57
550.806	36307.68
551.016	36326.66
551.227	36350.37
551.437	36372.57
551.647	36387.5
551.857	36399.82
552.068	36410.81
552.278	36410.1
552.488	36423.3
552.698	36423.1
552.908	36443.72
553.119	36433.41
553.329	36439.46
553.539	36439.39
553.749	36432.93
553.959	36431.7
554.169	36433.57
554.379	36436.68
554.589	36442.52
554.799	36437.21
555.009	36437.41
555.219	36432.48
555.429	36438.12
555.639	36435.19
555.849	36440.12
556.059	36459.39
556.269	36459.62
556.479	36464.06
556.689	36470.86
556.899	36480.42
557.109	36482.17
557.319	36477.48
557.528	36477.12
557.738	36478.86
557.948	36472.75
558.158	36465.28
558.368	36441.01
558.577	36443.88
558.787	36441.08
558.997	36436.41
559.207	36421.55
559.416	36413.1
559.626	36395.5
559.836	36386.15
560.045	36380.57
560.255	36376.41
560.465	36378.19
560.674	36384.73
560.884	36379.06
561.093	36378.12
561.303	36375.64
561.512	36371.41
561.722	36368.01
561.932	36375.41
562.141	36382.01
562.351	36379.19
562.56	36384.1
562.769	36386.66
562.979	36386.97
563.188	36384.57
563.398	36383.28
563.607	36383.62
563.817	36392.48
564.026	36403.46
564.235	36399.15
564.445	36395.52
564.654	36383.68
564.863	36388.24
565.073	36380.08
565.282	36380.19
565.491	36379.22
565.7	36363.32
565.91	36353.26
566.119	36340.88
566.328	36332.15
566.537	36332.5
566.746	36318.26
566.956	36315.82
567.165	36300.32
567.374	36297.28
567.583	36275.53
567.792	36261.46
568.001	36238.99
568.21	36216.79
568.419	36192.41
568.628	36166.21
568.837	36134.44
569.046	36114.59
569.255	36083.21
569.464	36050.28
569.673	36015.37
569.882	35992.06
570.091	35975.06
570.3	35967.82
570.509	35954.5
570.718	35942.84
570.927	35935.3
571.135	35926.15
571.344	35918.53
571.553	35930.04
571.762	35936.44
571.971	35937.72
572.18	35939.68
572.388	35928.86
572.597	35918.26
572.806	35907.75
573.014	35902.5
573.223	35879.28
573.432	35859.53
573.641	35836.99
573.849	35805.93
574.058	35781.97
574.266	35750.06
574.475	35728.9
574.684	35712.86
574.892	35696.53
575.101	35689.9
575.309	35671.3
575.518	35668.15
575.726	35661.19
575.935	35650.82
576.143	35639.86
576.352	35624.5
576.56	35607.81
576.769	35588.92
576.977	35579.99
577.186	35563.33
577.394	35540.02
577.602	35516.72
577.811	35493.86
578.019	35486.15
578.228	35468.13
578.436	35456.22
578.644	35435.06
578.852	35422.99
579.061	35404.77
579.269	35377.82
579.477	35369.92
579.685	35354.24
579.894	35341.61
580.102	35325.7
580.31	35298.59
580.518	35281.35
580.726	35263.35
580.935	35254.37
581.143	35232.48
581.351	35208.12
581.559	35182.41
581.767	35151.15
581.975	35127.02
582.183	35108.92
582.391	35082.62
582.599	35053.88
582.807	35033.72
583.015	35013.99
583.223	34995.37
583.431	34983.3
583.639	34966.9
583.847	34958.93
584.055	34950.21
584.263	34927.08
584.471	34904.13
584.678	34886.32
584.886	34875.59
585.094	34856.64
585.302	34831.99
585.51	34809.66
585.718	34792.5
585.925	34774.61
586.133	34754.9
586.341	34740.08
586.549	34726.55
586.756	34695.35
586.964	34674.82
587.172	34651.57
587.379	34623.37
587.587	34598.7
587.795	34567.39
588.002	34536.7
588.21	34516.99
588.417	34477.53
588.625	34437.88
588.833	34404.32
589.04	34395.42
589.248	34372.95
589.455	34356.97
589.663	34337.37
589.87	34312.13
590.078	34292.5
590.285	34271.32
590.492	34246.99
590.7	34233.81
590.907	34214.79
591.115	34202.61
591.322	34174.88
591.529	34144.84
591.737	34115.22
591.944	34087.28
592.151	34067.82
592.359	34042.55
592.566	34014.5
592.773	33989.64
592.981	33965.44
593.188	33943.68
593.395	33917.12
593.602	33896.42
593.809	33875.35
594.017	33856.95
594.224	33831.84
594.431	33801.13
594.638	33767.3
594.845	33739.19
595.052	33710.24
595.259	33681.08
595.466	33648.15
595.673	33621.92
595.88	33596.1
596.088	33570.61
596.295	33541.62
596.502	33523.41
596.709	33498.24
596.915	33483.19
597.122	33461.95
597.329	33438.22
597.536	33403.41
597.743	33388.75
597.95	33366.68
598.157	33344.12
598.364	33317.88
598.571	33277.04
598.777	33224.28
598.984	33176.1
599.191	33120.64
599.398	33080.99
599.605	33032.06
599.811	32997.55
600.018	32937.88
600.225	32878.08
600.431	32825.26
600.638	32789.32
600.845	32764.97
601.052	32737.7
601.258	32708.61
601.465	32674.33
601.671	32622.06
601.878	32561.53
602.085	32491.48
602.291	32397.06
602.498	32285.55
602.704	32144.93
602.911	31976.84
603.117	31785.81
603.324	31583.39
603.53	31366.19
603.737	31138.48
603.943	30905.1
604.15	30657.24
604.356	30392.62
604.562	30146.35
604.769	29887.22
604.975	29622.99
605.181	29369.55
605.388	29106.59
605.594	28844.15
605.8	28581.92
606.007	28312.64
606.213	28042.1
606.419	27768.46
606.625	27499.37
606.832	27220.22
607.038	26956.88
607.244	26687.33
607.45	26411.82
607.656	26140.02
607.863	25871.75
608.069	25590.82
608.275	25319.55
608.481	25027.39
608.687	24753.93
608.893	24469.62
609.099	24184.21
609.305	23893.19
609.511	23611.08
609.717	23321.9
609.923	23033.15
610.129	22739.57
610.335	22440.41
610.541	22125.12
610.747	21832.59
610.953	21524.57
611.159	21219.41
611.365	20908.37
611.571	20592.24
611.776	20274.1
611.982	19954.3
612.188	19631.82
612.394	19303.44
612.6	18979.33
612.806	18659.79
613.011	18328.12
613.217	17998.66
613.423	17676.35
613.628	17351.99
613.834	17035.28
614.04	16720.9
614.246	16401.61
614.451	16092.53
614.657	15800.08
614.862	15511.19
615.068	15235.73
615.274	14961.02
615.479	14694.7
615.685	14425.99
615.89	14169.95
616.096	13908.52
616.301	13652.12
616.507	13400.53
616.712	13143.33
616.918	12880.57
617.123	12618.64
617.329	12348.17
617.534	12069.84
617.74	11791.42
617.945	11510.64
618.15	11215.15
618.356	10751.21
618.561	9888.12
618.766	8847.19
618.972	7772.21
619.177	6721.86
619.382	5698.41
619.588	4702.19
619.793	4113.79
619.998	3420.27
620.203	2588.16
620.408	1575.45
620.614	585.1
