Data from test1_MAYP1115451__51__10-14-54-960.txt Node

Date: Wed Jun 12 10:14:54 MDT 2024
User: Modes Lab
Spectrometer: MAYP111545
Trigger mode: 0
Integration Time (sec): 8.000000E-3
Scans to average: 5
Electric dark correction enabled: true
Nonlinearity correction enabled: false
Boxcar width: 5
XAxis mode: Wavelengths
Number of Pixels in Spectrum: 2068
>>>>>Begin Spectral Data<<<<<
165.214	163.3
165.449	163.02
165.683	172.89
165.918	181.68
166.152	188.53
166.387	194.04
166.621	126.58
166.856	165.4
167.09	184.37
167.325	207.75
167.559	225.08
167.794	239.28
168.028	246.64
168.263	247.55
168.497	247.48
168.732	246.82
168.966	247.48
169.2	248
169.435	250.04
169.669	250.66
169.903	252.75
170.138	254.42
170.372	255.82
170.606	257.02
170.841	258.42
171.075	259.71
171.309	262.44
171.544	264.06
171.778	266.38
172.012	267.13
172.246	269.08
172.48	270.91
172.715	271.89
172.949	273.62
173.183	276.15
173.417	277.68
173.651	279.8
173.885	281.18
174.119	282.73
174.354	282.78
174.588	283.33
174.822	283.46
175.056	283.48
175.29	283.68
175.524	283.38
175.758	283.57
175.992	283.37
176.226	282.89
176.46	282.53
176.694	282.64
176.928	283.28
177.162	284.68
177.396	285.49
177.63	286.17
177.864	287.18
178.097	288.91
178.331	290.04
178.565	291.55
178.799	292.71
179.033	294.28
179.267	294.58
179.5	295.64
179.734	296.35
179.968	298.28
180.202	299.64
180.436	299.8
180.669	300.68
180.903	300.98
181.137	301.68
181.371	303.78
181.604	303.93
181.838	304.98
182.072	306.62
182.305	307.93
182.539	308.58
182.772	309.02
183.006	310.6
183.24	311.33
183.473	315.6
183.707	316.93
183.94	316.78
184.174	318.28
184.408	319.66
184.641	320.33
184.875	320.78
185.108	320.95
185.342	321.75
185.575	321.91
185.808	322.44
186.042	321.02
186.275	322.4
186.509	323.46
186.742	325.28
186.976	326.17
187.209	327.18
187.442	328.71
187.676	330.66
187.909	331.6
188.142	332.84
188.376	335.15
188.609	336.35
188.842	337.66
189.076	339.88
189.309	341.49
189.542	343.86
189.775	346.97
190.009	349.15
190.242	350.82
190.475	353.4
190.708	356.26
190.941	357.69
191.174	360.09
191.408	361.57
191.641	363.24
191.874	364.64
192.107	366.77
192.34	368.51
192.573	369.84
192.806	372.86
193.039	374.86
193.272	376.66
193.505	378.09
193.738	379.38
193.971	381.37
194.204	383.04
194.437	384.95
194.67	386.08
194.903	386.71
195.136	388.89
195.369	390.2
195.602	392.4
195.835	394
196.068	396.18
196.301	397.69
196.533	399.86
196.766	401.57
196.999	403.71
197.232	405.78
197.465	408.42
197.698	410.44
197.93	411.51
198.163	413.89
198.396	416.73
198.629	418.97
198.861	421.17
199.094	422.68
199.327	426
199.559	427.58
199.792	428.91
200.025	431
200.257	433.38
200.49	436.04
200.723	438.48
200.955	441.09
201.188	444.44
201.42	447.58
201.653	450.46
201.886	451.8
202.118	453.98
202.351	456.57
202.583	458.13
202.816	460.46
203.048	463.22
203.281	464.66
203.513	465.22
203.745	467.75
203.978	469.48
204.21	471.46
204.443	473.91
204.675	476.04
204.907	478.8
205.14	481.42
205.372	483.49
205.605	486.17
205.837	488.68
206.069	491.75
206.302	493.35
206.534	494.82
206.766	497.15
206.998	499.58
207.231	501.55
207.463	504.38
207.695	507.46
207.927	509.58
208.159	511.11
208.392	512
208.624	513.49
208.856	515.38
209.088	518.08
209.32	519.38
209.552	521.49
209.784	524.53
210.017	526.49
210.249	527.57
210.481	529.28
210.713	530.98
210.945	534.13
211.177	535.86
211.409	536.86
211.641	538.15
211.873	540.18
212.105	541.49
212.337	543.17
212.569	545.44
212.801	548.6
213.033	550.04
213.264	551.89
213.496	554.69
213.728	556.78
213.96	558.73
214.192	560.95
214.424	563.46
214.656	565.93
214.887	567.77
215.119	569.33
215.351	570.57
215.583	572.44
215.815	575.46
216.046	575.48
216.278	578.82
216.51	581.97
216.741	584.13
216.973	584.98
217.205	586.26
217.436	587.75
217.668	590.29
217.9	592.8
218.131	594.91
218.363	594.44
218.595	597.22
218.826	597.68
219.058	598.28
219.289	598.95
219.521	600.8
219.752	602.62
219.984	603.89
220.215	603.09
220.447	602.77
220.678	603.49
220.91	605.37
221.141	605.91
221.373	606.44
221.604	607.46
221.836	608.42
222.067	610.24
222.298	610.06
222.53	611.57
222.761	612.91
222.993	613.58
223.224	616.02
223.455	617.57
223.686	617.66
223.918	620.31
224.149	621
224.38	623.09
224.612	623.04
224.843	624.86
225.074	625.44
225.305	625.91
225.536	627.68
225.768	627.91
225.999	628.8
226.23	629.42
226.461	628.17
226.692	629.15
226.923	629.29
227.155	632.42
227.386	632.77
227.617	632.2
227.848	633.33
228.079	634.53
228.31	634.73
228.541	635.17
228.772	635.84
229.003	636.64
229.234	636.75
229.465	636.28
229.696	633.98
229.927	633.58
230.158	634.97
230.389	634.26
230.62	633.53
230.85	632.8
231.081	632.38
231.312	633.09
231.543	633.13
231.774	632.73
232.005	633.75
232.236	633.88
232.466	634.26
232.697	633.57
232.928	634.15
233.159	633.82
233.389	633.93
233.62	635.09
233.851	634.98
234.082	634.8
234.312	634.88
234.543	635.26
234.774	634.82
235.004	634.77
235.235	634.98
235.466	634.24
235.696	632.98
235.927	633.09
236.157	631.42
236.388	631.78
236.618	631.29
236.849	632.24
237.08	631.33
237.31	631.6
237.541	630.73
237.771	630.46
238.002	630.44
238.232	631.97
238.463	631.06
238.693	630.89
238.923	630.26
239.154	630.53
239.384	629.4
239.615	628.97
239.845	629.08
240.075	628.97
240.306	628.82
240.536	629.13
240.766	627.77
240.997	627.89
241.227	627.6
241.457	626.95
241.687	627.62
241.918	628.26
242.148	627.26
242.378	625.71
242.608	625.4
242.839	625.64
243.069	624.73
243.299	624.51
243.529	626.53
243.759	626.09
243.989	625.95
244.22	625.09
244.45	624.2
244.68	625.08
244.91	625.97
245.14	625.26
245.37	623.42
245.6	623.66
245.83	623.37
246.06	620.77
246.29	621.18
246.52	620.75
246.75	620.55
246.98	619.42
247.21	617.78
247.44	617.26
247.67	618.09
247.9	619.48
248.13	618.68
248.359	617.88
248.589	617.17
248.819	615.95
249.049	614.09
249.279	613.04
249.509	612.02
249.738	612.6
249.968	611.48
250.198	609.75
250.428	607.93
250.657	606.22
250.887	606.66
251.117	605.68
251.347	605.53
251.576	606.04
251.806	605.24
252.036	603.88
252.265	603.35
252.495	601.24
252.725	599.51
252.954	599.93
253.184	599.97
253.413	598.58
253.643	598.18
253.873	596.28
254.102	595.49
254.332	593.93
254.561	594.53
254.791	592.38
255.02	593.6
255.25	593.88
255.479	591.75
255.708	590.66
255.938	590.69
256.167	589.78
256.397	589.62
256.626	589.95
256.856	589.71
257.085	588.42
257.314	589.51
257.544	588.08
257.773	588.33
258.002	587.84
258.232	587.15
258.461	585.24
258.69	585.18
258.919	584.22
259.149	581.62
259.378	581.78
259.607	581.48
259.836	580.71
260.065	581
260.295	579.26
260.524	579.08
260.753	578.89
260.982	578.49
261.211	578.06
261.44	578.42
261.669	578.58
261.899	577.26
262.128	577.55
262.357	576.02
262.586	575.38
262.815	575.4
263.044	574.51
263.273	576.8
263.502	576.24
263.731	575.06
263.96	574.97
264.189	572.89
264.418	572.13
264.646	570.44
264.875	568.91
265.104	567.24
265.333	566.35
265.562	564.89
265.791	560.62
266.02	559.08
266.249	557.33
266.477	554.66
266.706	553.84
266.935	553.44
267.164	552.86
267.393	552.77
267.621	551.93
267.85	551.22
268.079	552.31
268.307	552.75
268.536	552.35
268.765	553.37
268.993	553.04
269.222	553.11
269.451	552.31
269.679	551.31
269.908	551.89
270.137	551.13
270.365	551.53
270.594	549.86
270.822	549.73
271.051	550.53
271.279	550.35
271.508	551.06
271.736	552.6
271.965	553.09
272.193	554
272.422	553.55
272.65	555
272.879	554.58
273.107	554.33
273.336	554.18
273.564	552.86
273.792	551.42
274.021	550.33
274.249	549.02
274.477	547.08
274.706	545.95
274.934	544.24
275.162	542
275.391	540.2
275.619	539.18
275.847	537.53
276.075	536.64
276.304	536.44
276.532	535.64
276.76	533.48
276.988	532.75
277.216	530.64
277.445	529.51
277.673	528.91
277.901	528.98
278.129	528.24
278.357	527.6
278.585	526.78
278.813	525.35
279.041	524.13
279.269	524.11
279.497	524.28
279.725	525.09
279.954	525
280.182	524.98
280.41	524.11
280.637	524.26
280.865	523.62
281.093	523.78
281.321	524.38
281.549	525.06
281.777	524.8
282.005	524.84
282.233	523.89
282.461	523
282.689	521.89
282.916	520.75
283.144	520.66
283.372	520.24
283.6	520.44
283.828	519.17
284.055	517.8
284.283	517.68
284.511	516.18
284.739	516.71
284.966	516.42
285.194	515.42
285.422	515.08
285.649	512.33
285.877	511.58
286.105	509.89
286.332	509.38
286.56	509.44
286.788	509.42
287.015	508.2
287.243	506.13
287.47	504.62
287.698	505.06
287.925	504.31
288.153	505.08
288.381	504.97
288.608	504.62
288.836	504.88
289.063	503.26
289.29	501.6
289.518	502.17
289.745	502.62
289.973	503.62
290.2	502
290.428	502
290.655	501.11
290.882	500.4
291.11	500.06
291.337	498.98
291.564	499.4
291.792	499.75
292.019	499.06
292.246	497.29
292.473	496.02
292.701	497.48
292.928	496.88
293.155	497.09
293.382	496.46
293.61	494.84
293.837	493.58
294.064	492.29
294.291	489.68
294.518	489.09
294.745	489.22
294.972	488.98
295.2	487.37
295.427	487.64
295.654	486.49
295.881	485.2
296.108	485.4
296.335	485.33
296.562	485.13
296.789	484.86
297.016	483.46
297.243	482.93
297.47	481.37
297.697	481.04
297.924	479.33
298.151	478.49
298.378	477.53
298.604	476.68
298.831	475.98
299.058	476.22
299.285	476.97
299.512	476.46
299.739	476.04
299.966	476.15
300.192	475.49
300.419	475.58
300.646	475.06
300.873	475.17
301.099	475.15
301.326	474.62
301.553	474.37
301.78	474.91
302.006	474.58
302.233	475.28
302.46	474.86
302.686	474.15
302.913	472.89
303.14	472.8
303.366	472.42
303.593	471.86
303.819	471.24
304.046	469.29
304.272	467.71
304.499	467.98
304.725	465.95
304.952	465.49
305.179	464.77
305.405	464.88
305.631	464.42
305.858	464.82
306.084	463.33
306.311	463.66
306.537	464.64
306.764	464.18
306.99	463.4
307.216	463.86
307.443	463.78
307.669	464.82
307.895	464
308.122	463.78
308.348	462.82
308.574	463.18
308.801	462.66
309.027	462.15
309.253	461.75
309.479	461.58
309.706	462.46
309.932	462.15
310.158	461.42
310.384	460.91
310.61	461.71
310.837	461.13
311.063	461.51
311.289	460.75
311.515	460.18
311.741	459.44
311.967	459.17
312.193	458.2
312.419	458.33
312.645	457.28
312.871	458.26
313.097	457.57
313.323	457.93
313.549	458.58
313.775	459.04
314.001	458.33
314.227	458.75
314.453	459.55
314.679	459.64
314.905	460.66
315.131	461.6
315.357	462.09
315.583	462.95
315.809	463.24
316.034	462.84
316.26	463.62
316.486	465.84
316.712	467.15
316.938	466.6
317.163	466
317.389	466.37
317.615	466.11
317.841	466.22
318.066	465.55
318.292	466.62
318.518	468
318.743	468.46
318.969	468.66
319.195	469.06
319.42	469.57
319.646	471.37
319.872	471.22
320.097	472.13
320.323	472.66
320.548	474.58
320.774	476.06
320.999	476.2
321.225	477.2
321.45	478.2
321.676	479.97
321.901	482.24
322.127	483.38
322.352	484.84
322.578	487.4
322.803	488.84
323.029	491.49
323.254	492.78
323.479	493.37
323.705	494.22
323.93	495.42
324.155	497.24
324.381	498.86
324.606	500.28
324.831	502.57
325.057	504.64
325.282	507.71
325.507	507.17
325.732	509.02
325.958	512.04
326.183	514.66
326.408	517.44
326.633	520.02
326.858	522.15
327.084	524.93
327.309	527.35
327.534	529.06
327.759	531.71
327.984	536.13
328.209	539.15
328.434	543.68
328.659	546.4
328.884	549.51
329.109	551.91
329.334	556.42
329.559	560.35
329.784	563.53
330.009	566.66
330.234	568.77
330.459	571.84
330.684	574.86
330.909	577.82
331.134	582.58
331.359	586.2
331.584	590.15
331.809	593.15
332.034	597.88
332.259	603.73
332.483	608.82
332.708	613.71
332.933	618.88
333.158	624.17
333.383	628.8
333.607	634.31
333.832	639.58
334.057	645.24
334.282	650.13
334.506	654.93
334.731	659.55
334.956	665.24
335.18	672.31
335.405	677.44
335.63	684.48
335.854	689.22
336.079	693.91
336.303	699.71
336.528	704.46
336.753	711.51
336.977	717.08
337.202	721.71
337.426	727.88
337.651	733.42
337.875	739.46
338.1	743.77
338.324	751
338.549	758.97
338.773	766.26
338.997	773.82
339.222	780.55
339.446	787.75
339.671	796.62
339.895	803.68
340.119	811.55
340.344	821.4
340.568	829.97
340.792	838.46
341.017	844.58
341.241	851.68
341.465	859.91
341.689	868.62
341.914	876.13
342.138	883.66
342.362	892.13
342.586	901.08
342.811	906.71
343.035	914.73
343.259	922.64
343.483	933.18
343.707	942.58
343.931	951.69
344.155	960.04
344.38	971.18
344.604	981.71
344.828	991.71
345.052	999.37
345.276	1010.04
345.5	1018.66
345.724	1028.53
345.948	1038.09
346.172	1048.04
346.396	1056.55
346.62	1067.91
346.844	1076.86
347.068	1086.11
347.292	1094.69
347.515	1105.53
347.739	1118
347.963	1130
348.187	1141.06
348.411	1151.33
348.635	1161.29
348.859	1173.35
349.082	1182.4
349.306	1191.64
349.53	1201.4
349.754	1213.58
349.977	1225.13
350.201	1233.8
350.425	1244.77
350.649	1256.44
350.872	1267
351.096	1277.88
351.32	1289.48
351.543	1302.38
351.767	1314.86
351.99	1327.38
352.214	1338.57
352.438	1348.86
352.661	1358.64
352.885	1370.15
353.108	1380.71
353.332	1393.31
353.555	1405.42
353.779	1415.31
354.002	1426.58
354.226	1439.84
354.449	1451.78
354.673	1464.17
354.896	1477.51
355.12	1491.78
355.343	1504.91
355.566	1517.02
355.79	1528
356.013	1541.09
356.237	1556.38
356.46	1568.22
356.683	1579.11
356.907	1591.78
357.13	1602.04
357.353	1612.69
357.576	1625.68
357.8	1636.09
358.023	1648.33
358.246	1662.31
358.469	1673.53
358.693	1686.46
358.916	1700.42
359.139	1712.09
359.362	1722.62
359.585	1736.04
359.808	1751.08
360.031	1763.22
360.255	1777.68
360.478	1791.88
360.701	1805.17
360.924	1819.73
361.147	1830.73
361.37	1844.49
361.593	1859.69
361.816	1874.57
362.039	1888.91
362.262	1902.95
362.485	1916.35
362.708	1932.66
362.931	1946.69
363.154	1961.31
363.377	1972.97
363.599	1986.71
363.822	1999.64
364.045	2015.13
364.268	2029.62
364.491	2043.93
364.714	2057.77
364.936	2071.93
365.159	2084.69
365.382	2099.82
365.605	2111.13
365.828	2130.18
366.05	2145.28
366.273	2160.06
366.496	2173.84
366.718	2186.89
366.941	2204.4
367.164	2219.82
367.386	2238.44
367.609	2252.77
367.832	2269.15
368.054	2289.73
368.277	2303.97
368.5	2321.37
368.722	2338.51
368.945	2352.89
369.167	2371.29
369.39	2386.48
369.612	2403.02
369.835	2416.97
370.057	2433.57
370.28	2449.6
370.502	2464.44
370.725	2479.8
370.947	2495.35
371.169	2510.91
371.392	2533.09
371.614	2550.66
371.837	2567.73
372.059	2586.08
372.281	2602.95
372.504	2620.66
372.726	2637.26
372.948	2653.6
373.171	2672.22
373.393	2691.42
373.615	2707.71
373.837	2720.17
374.06	2739.51
374.282	2756.75
374.504	2775.06
374.726	2793.35
374.948	2812.66
375.17	2831.51
375.393	2849.02
375.615	2869.53
375.837	2889.08
376.059	2910.62
376.281	2933
376.503	2952.78
376.725	2977.55
376.947	2996.86
377.169	3016.02
377.391	3036.26
377.613	3058.89
377.835	3081.75
378.057	3102.38
378.279	3121.98
378.501	3143.18
378.723	3165.29
378.945	3188
379.167	3206.42
379.389	3227.48
379.611	3251.48
379.833	3273.53
380.054	3295.28
380.276	3319.08
380.498	3343
380.72	3368.48
380.942	3392.91
381.163	3416.09
381.385	3437.13
381.607	3461.37
381.829	3489.24
382.05	3515.18
382.272	3543.53
382.494	3569.18
382.716	3595.86
382.937	3620.22
383.159	3644.84
383.381	3672.51
383.602	3701.42
383.824	3728.38
384.045	3756.15
384.267	3780.57
384.488	3805.93
384.71	3830.33
384.932	3857.26
385.153	3880.48
385.375	3909.68
385.596	3937.49
385.818	3964.62
386.039	3989.06
386.261	4018.53
386.482	4048.88
386.703	4076.13
386.925	4104.68
387.146	4132.17
387.368	4156.11
387.589	4188.6
387.81	4218.44
388.032	4247.51
388.253	4274.4
388.474	4303.08
388.696	4331.48
388.917	4359.08
389.138	4390.49
389.359	4424.08
389.581	4454.38
389.802	4486.91
390.023	4515.48
390.244	4543.09
390.465	4573.15
390.687	4604.26
390.908	4634.77
391.129	4664.8
391.35	4695.78
391.571	4727.51
391.792	4756.48
392.013	4788.49
392.234	4825.2
392.455	4857.89
392.677	4888.02
392.898	4921.49
393.119	4952.71
393.34	4984.24
393.561	5019.26
393.782	5053.66
394.003	5086.28
394.223	5121.35
394.444	5155.42
394.665	5184
394.886	5215.77
395.107	5250.68
395.328	5284.57
395.549	5319.82
395.77	5355.8
395.99	5391.6
396.211	5426.08
396.432	5457.44
396.653	5488.08
396.874	5520.86
397.094	5558.95
397.315	5595.02
397.536	5629.38
397.757	5661.91
397.977	5697.26
398.198	5736.93
398.419	5766.69
398.639	5801.86
398.86	5839.89
399.081	5875.31
399.301	5911.58
399.522	5946.57
399.742	5980.15
399.963	6018.58
400.184	6055.6
400.404	6092.88
400.625	6120.69
400.845	6160.2
401.066	6190.89
401.286	6226.11
401.507	6260.06
401.727	6295.28
401.948	6327.91
402.168	6366.33
402.388	6400.22
402.609	6437.93
402.829	6474.31
403.05	6512.97
403.27	6545.73
403.49	6582.86
403.711	6615.02
403.931	6655.2
404.151	6689.35
404.372	6724.31
404.592	6756.55
404.812	6792.37
405.032	6824.49
405.253	6852.33
405.473	6887.77
405.693	6921.86
405.913	6956.42
406.133	6991.89
406.353	7023.48
406.574	7058.26
406.794	7093.98
407.014	7131
407.234	7168.02
407.454	7200.91
407.674	7241.4
407.894	7277.6
408.114	7320.64
408.334	7355.66
408.554	7394.77
408.774	7433.53
408.994	7470.24
409.214	7509.86
409.434	7546.44
409.654	7581.29
409.874	7622.44
410.094	7660.75
410.314	7697.95
410.534	7731.8
410.754	7773.09
410.974	7815.89
411.193	7854.42
411.413	7896.82
411.633	7931.44
411.853	7969.49
412.073	8008.75
412.292	8046.86
412.512	8082.97
412.732	8123.06
412.952	8166.22
413.171	8202.49
413.391	8238.48
413.611	8276.08
413.831	8317.31
414.05	8361.37
414.27	8409.77
414.489	8453
414.709	8498.91
414.929	8540.78
415.148	8586.11
415.368	8626.69
415.587	8674.08
415.807	8714.29
416.026	8762.31
416.246	8802
416.465	8844.22
416.685	8887.13
416.904	8929.18
417.124	8970.73
417.343	9019.24
417.563	9058.91
417.782	9099.38
418.002	9147.31
418.221	9193.8
418.44	9235.2
418.66	9279.6
418.879	9322.02
419.098	9364.53
419.318	9408.37
419.537	9453.02
419.756	9497.84
419.976	9543.33
420.195	9590.02
420.414	9629.62
420.633	9675.62
420.853	9715.77
421.072	9765.64
421.291	9811.95
421.51	9854.55
421.729	9896.48
421.948	9942.06
422.168	9982.22
422.387	10023.35
422.606	10065.2
422.825	10104.97
423.044	10148.8
423.263	10195.38
423.482	10235.08
423.701	10279.02
423.92	10322.97
424.139	10370.18
424.358	10416.38
424.577	10464.06
424.796	10511.49
425.015	10558.66
425.234	10607.4
425.453	10652.35
425.672	10699.42
425.891	10748.33
426.11	10796.44
426.328	10840.35
426.547	10883.69
426.766	10921.08
426.985	10967.06
427.204	11016.26
427.422	11060.77
427.641	11110.33
427.86	11154.98
428.079	11203.02
428.297	11246.91
428.516	11298.57
428.735	11348.17
428.954	11400.75
429.172	11455.57
429.391	11505.08
429.61	11552.8
429.828	11598.55
430.047	11644.68
430.265	11695.33
430.484	11741.2
430.703	11791.29
430.921	11831.88
431.14	11875.24
431.358	11919.62
431.577	11962.95
431.795	12007.77
432.014	12056.66
432.232	12109.33
432.451	12155.17
432.669	12205.02
432.887	12249.98
433.106	12298.68
433.324	12349.17
433.543	12399.55
433.761	12448.53
433.979	12497.97
434.198	12545.93
434.416	12590.26
434.634	12638.02
434.853	12684.57
435.071	12726.8
435.289	12778.26
435.507	12821.58
435.726	12864.49
435.944	12909.97
436.162	12956.44
436.38	12999.44
436.598	13045.33
436.817	13091.78
437.035	13137.82
437.253	13190.2
437.471	13240.86
437.689	13288.31
437.907	13338.8
438.125	13390.82
438.343	13437.35
438.561	13485.53
438.78	13535.22
438.998	13584.51
439.216	13635.2
439.434	13686.86
439.652	13722.15
439.869	13767.73
440.087	13815
440.305	13861.17
440.523	13908.24
440.741	13959.6
440.959	14008.97
441.177	14060.02
441.395	14108.2
441.613	14155.64
441.831	14203.71
442.048	14261.82
442.266	14310.02
442.484	14358.11
442.702	14405.64
442.919	14451.95
443.137	14506.2
443.355	14551.53
443.573	14597.09
443.79	14645.75
444.008	14690.44
444.226	14738.44
444.443	14786.8
444.661	14831.69
444.879	14881.04
445.096	14929.86
445.314	14981.53
445.532	15026.09
445.749	15070.97
445.967	15125.15
446.184	15170.84
446.402	15221.46
446.619	15269.24
446.837	15314.68
447.054	15365.75
447.272	15411.86
447.489	15458.86
447.707	15501.98
447.924	15550.37
448.141	15600.75
448.359	15644.04
448.576	15698.17
448.794	15747.57
449.011	15790.91
449.228	15843.04
449.446	15890.31
449.663	15938.77
449.88	15988.48
450.098	16044.68
450.315	16090.4
450.532	16138.93
450.749	16190.13
450.967	16237.2
451.184	16288.8
451.401	16335.2
451.618	16378.48
451.835	16430.49
452.052	16482.53
452.27	16532.15
452.487	16574.31
452.704	16621.06
452.921	16673.62
453.138	16721.11
453.355	16763.29
453.572	16806.84
453.789	16863.06
454.006	16911.66
454.223	16962.51
454.44	17005.57
454.657	17052.29
454.874	17101.57
455.091	17143.42
455.308	17186.55
455.525	17236.73
455.742	17285.35
455.959	17338.86
456.176	17381.49
456.393	17434.09
456.609	17475.86
456.826	17524.44
457.043	17572.37
457.26	17618.71
457.477	17671.38
457.693	17716.57
457.91	17755.6
458.127	17808
458.344	17842.86
458.56	17886.62
458.777	17928.57
458.994	17970.75
459.21	18011.88
459.427	18046.11
459.644	18083.78
459.86	18116.15
460.077	18153.58
460.294	18196.46
460.51	18223.6
460.727	18262.29
460.943	18297.13
461.16	18331.73
461.376	18369.26
461.593	18407.08
461.809	18450
462.026	18489.11
462.242	18536.31
462.459	18584.18
462.675	18618.77
462.892	18662.46
463.108	18706.62
463.324	18746.04
463.541	18784.89
463.757	18825.48
463.974	18863.42
464.19	18902
464.406	18946.6
464.623	18984.57
464.839	19024.78
465.055	19070.53
465.271	19113.26
465.488	19157.13
465.704	19207.46
465.92	19258.37
466.136	19311.66
466.353	19365.18
466.569	19418.4
466.785	19466.48
467.001	19527.42
467.217	19579.09
467.433	19633.2
467.649	19695.18
467.865	19750.24
468.082	19818.37
468.298	19881.46
468.514	19941.48
468.73	20005.58
468.946	20072.49
469.162	20136.8
469.378	20199.66
469.594	20265.98
469.81	20328.68
470.026	20387.77
470.242	20454.28
470.457	20509.49
470.673	20573.49
470.889	20637.37
471.105	20709.08
471.321	20774.53
471.537	20843.06
471.753	20907.8
471.968	20974.88
472.184	21052.86
472.4	21125.71
472.616	21196.57
472.832	21277.86
473.047	21351.35
473.263	21413.38
473.479	21478.57
473.694	21549.35
473.91	21626.38
474.126	21703.91
474.341	21783.42
474.557	21850.18
474.773	21916.69
474.988	21993.88
475.204	22066.86
475.42	22141.11
475.635	22226.98
475.851	22304.68
476.066	22374.69
476.282	22443.68
476.497	22511.77
476.713	22577.82
476.928	22650.4
477.144	22724.58
477.359	22788.66
477.575	22845.77
477.79	22905.95
478.005	22969.64
478.221	23030.13
478.436	23092.62
478.651	23150.98
478.867	23208.33
479.082	23261.2
479.297	23330.75
479.513	23390.38
479.728	23439.44
479.943	23486.66
480.159	23539.53
480.374	23588.86
480.589	23637.09
480.804	23689.69
481.019	23743.68
481.235	23794.77
481.45	23852.35
481.665	23889.75
481.88	23940.97
482.095	23998.93
482.31	24056.88
482.525	24109.58
482.741	24165.33
482.956	24220.73
483.171	24272.42
483.386	24314.44
483.601	24359.46
483.816	24402.66
484.031	24449.97
484.246	24488.13
484.461	24532.29
484.676	24578.98
484.891	24626.04
485.105	24663.71
485.32	24703.82
485.535	24746.84
485.75	24795.31
485.965	24846.26
486.18	24889.11
486.395	24931.88
486.609	24980.31
486.824	25017.95
487.039	25053.97
487.254	25092.93
487.469	25133.91
487.683	25169.57
487.898	25204.18
488.113	25243.71
488.327	25276.33
488.542	25319.51
488.757	25359.8
488.972	25393.8
489.186	25431.13
489.401	25464.24
489.615	25491.82
489.83	25528.38
490.045	25567.24
490.259	25604.11
490.474	25635.29
490.688	25674.89
490.903	25697.11
491.117	25724.22
491.332	25747.91
491.546	25786.53
491.761	25825.95
491.975	25860.04
492.19	25896.91
492.404	25926.46
492.618	25956.11
492.833	25989.51
493.047	26018.8
493.262	26051.84
493.476	26080.08
493.69	26119.37
493.905	26143.2
494.119	26166.8
494.333	26191.91
494.547	26215.75
494.762	26244.55
494.976	26275.38
495.19	26300.75
495.404	26319.11
495.619	26346.93
495.833	26366.58
496.047	26389.2
496.261	26409.51
496.475	26428.78
496.689	26446.86
496.903	26446.69
497.117	26453.2
497.332	26455.04
497.546	26450.04
497.76	26441.22
497.974	26437.09
498.188	26431.51
498.402	26416.24
498.616	26406.35
498.83	26404.08
499.044	26391.44
499.258	26392.82
499.472	26393.18
499.685	26388.28
499.899	26399.84
500.113	26411.91
500.327	26418.84
500.541	26435.86
500.755	26460.15
500.969	26476.66
501.183	26479.58
501.396	26503.8
501.61	26520.48
501.824	26537.38
502.038	26560.18
502.251	26572.86
502.465	26597.06
502.679	26612.73
502.892	26636.18
503.106	26650.64
503.32	26672.53
503.533	26699.29
503.747	26719.71
503.961	26744.88
504.174	26764.28
504.388	26786.38
504.602	26817.18
504.815	26842.93
505.029	26877.89
505.242	26917.31
505.456	26962.75
505.669	27012.35
505.883	27064.62
506.096	27114.86
506.31	27168.29
506.523	27229.78
506.736	27285.93
506.95	27345.2
507.163	27406.4
507.377	27470.28
507.59	27528.58
507.803	27585.82
508.017	27643.31
508.23	27697.24
508.443	27765.57
508.657	27829.31
508.87	27889.09
509.083	27965.77
509.296	28033.84
509.51	28110.4
509.723	28194.53
509.936	28270.57
510.149	28352.53
510.363	28440.93
510.576	28531.64
510.789	28609.49
511.002	28698.75
511.215	28801.64
511.428	28890.18
511.641	28992.04
511.854	29090.2
512.067	29185.78
512.28	29276.09
512.493	29383.66
512.707	29482.33
512.92	29596.18
513.132	29711.6
513.345	29823.13
513.558	29932.68
513.771	30046.48
513.984	30152.26
514.197	30265.75
514.41	30379.62
514.623	30497.98
514.836	30606.93
515.049	30713.55
515.262	30812.8
515.474	30919.88
515.687	31031.09
515.9	31135.29
516.113	31230.89
516.325	31328.91
516.538	31415.58
516.751	31502.04
516.964	31591.44
517.176	31671.8
517.389	31762.97
517.602	31853.18
517.814	31929.38
518.027	32002.17
518.24	32066.46
518.452	32156.6
518.665	32234.49
518.877	32321.22
519.09	32390.6
519.303	32466.64
519.515	32542.42
519.728	32607.22
519.94	32670.11
520.153	32734.57
520.365	32806.73
520.578	32887.37
520.79	32941.02
521.002	33004.53
521.215	33064.09
521.427	33120.84
521.64	33171.58
521.852	33224.22
522.064	33288.33
522.277	33343.33
522.489	33406.2
522.701	33456.46
522.914	33500.48
523.126	33552.48
523.338	33603.2
523.551	33642.95
523.763	33697.35
523.975	33756.88
524.187	33809.22
524.399	33849.71
524.612	33899.24
524.824	33945.49
525.036	33992.69
525.248	34037.02
525.46	34082.35
525.672	34125.46
525.884	34174.62
526.096	34213.93
526.308	34241.82
526.521	34274.46
526.733	34312.29
526.945	34344.29
527.157	34372.62
527.369	34398.82
527.581	34428.11
527.793	34458.73
528.004	34485.11
528.216	34517.15
528.428	34548.28
528.64	34591.26
528.852	34624.15
529.064	34650.91
529.276	34680.11
529.488	34703.78
529.699	34731.64
529.911	34756.13
530.123	34778.97
530.335	34809.4
530.547	34829.75
530.758	34869.26
530.97	34891.93
531.182	34922.82
531.393	34959.26
531.605	34992.88
531.817	35038.37
532.029	35076.35
532.24	35114.15
532.452	35147.91
532.663	35170.37
532.875	35198.22
533.087	35209.57
533.298	35233.09
533.51	35251.58
533.721	35264.18
533.933	35282.48
534.144	35290.62
534.356	35305.51
534.567	35316.24
534.779	35333.6
534.99	35363.98
535.202	35389.91
535.413	35417.75
535.624	35438.82
535.836	35460.6
536.047	35486.35
536.259	35501.73
536.47	35521.55
536.681	35533.35
536.893	35550.82
537.104	35564.66
537.315	35579.69
537.526	35592.57
537.738	35596.22
537.949	35606.62
538.16	35619.37
538.371	35621.69
538.582	35640.86
538.794	35664.53
539.005	35691.89
539.216	35716.93
539.427	35745.8
539.638	35764.57
539.849	35774.04
540.06	35804.57
540.272	35824.93
540.483	35850.26
540.694	35871.4
540.905	35890.08
541.116	35904.38
541.327	35913.49
541.538	35926.4
541.749	35930.38
541.96	35933.09
542.17	35948.29
542.381	35949.17
542.592	35962.35
542.803	35961.37
543.014	35973.98
543.225	35981.8
543.436	35981.77
543.647	35992.2
543.857	35994
544.068	36004.82
544.279	36017.55
544.49	36029.33
544.701	36042.51
544.911	36058.62
545.122	36079.11
545.333	36083.88
545.543	36093.08
545.754	36102.29
545.965	36108.26
546.175	36118.44
546.386	36127.18
546.597	36130.4
546.807	36146.95
547.018	36155.51
547.229	36158.78
547.439	36165.51
547.65	36177.66
547.86	36179.68
548.071	36184.8
548.281	36191.09
548.492	36197.97
548.702	36203.22
548.913	36218.29
549.123	36216.31
549.333	36226.08
549.544	36230.46
549.754	36232.02
549.965	36241.78
550.175	36265.38
550.385	36284.15
550.596	36295.46
550.806	36314.09
551.016	36321.24
551.227	36334.71
551.437	36353.84
551.647	36371.93
551.857	36386.73
552.068	36404.08
552.278	36410.82
552.488	36419.49
552.698	36424
552.908	36428.37
553.119	36435.24
553.329	36445.75
553.539	36443.44
553.749	36444.42
553.959	36434.91
554.169	36431.04
554.379	36418.55
554.589	36424.37
554.799	36421.49
555.009	36437.69
555.219	36449.86
555.429	36457.62
555.639	36464.97
555.849	36472.66
556.059	36474.97
556.269	36481.6
556.479	36483.53
556.689	36496.73
556.899	36498.58
557.109	36495.18
557.319	36489.8
557.528	36480.04
557.738	36469.69
557.948	36459.31
558.158	36450.69
558.368	36444.31
558.577	36436.37
558.787	36436.82
558.997	36438.49
559.207	36427.78
559.416	36421.89
559.626	36398.68
559.836	36397.55
560.045	36387.98
560.255	36388.02
560.465	36388.18
560.674	36379.77
560.884	36385.13
561.093	36375.33
561.303	36369.66
561.512	36372.28
561.722	36364.69
561.932	36384.48
562.141	36386.95
562.351	36385.42
562.56	36381.77
562.769	36380.24
562.979	36382.51
563.188	36383.31
563.398	36388.18
563.607	36389.71
563.817	36387.31
564.026	36394.09
564.235	36381.18
564.445	36369.37
564.654	36374.6
564.863	36376.75
565.073	36377.53
565.282	36372.46
565.491	36362.8
565.7	36355.22
565.91	36336.86
566.119	36330.33
566.328	36323.77
566.537	36313.82
566.746	36301.04
566.956	36291
567.165	36279.4
567.374	36262.97
567.583	36254.6
567.792	36235.66
568.001	36213.08
568.21	36207.28
568.419	36185.93
568.628	36163.2
568.837	36138.84
569.046	36128.38
569.255	36103.71
569.464	36081.49
569.673	36053.13
569.882	36027.64
570.091	36008.42
570.3	35997.73
570.509	35968.22
570.718	35964.53
570.927	35950.93
571.135	35941.51
571.344	35935.6
571.553	35938.71
571.762	35943.48
571.971	35949.55
572.18	35945.13
572.388	35940.28
572.597	35928.17
572.806	35912.28
573.014	35882.97
573.223	35871.22
573.432	35852.15
573.641	35826.33
573.849	35796.69
574.058	35763.37
574.266	35733.04
574.475	35718.09
574.684	35706.62
574.892	35710.86
575.101	35714.09
575.309	35718.18
575.518	35704.68
575.726	35698.08
575.935	35682.91
576.143	35679.31
576.352	35669.04
576.56	35657.84
576.769	35636.89
576.977	35617.58
577.186	35584.88
577.394	35560.77
577.602	35529.04
577.811	35511.84
578.019	35507.64
578.228	35493.29
578.436	35472.55
578.644	35455.55
578.852	35444.35
579.061	35420.6
579.269	35403.66
579.477	35387.42
579.685	35374.49
579.894	35362.33
580.102	35344.09
580.31	35317.98
580.518	35307.33
580.726	35284.4
580.935	35269.75
581.143	35245.09
581.351	35232.69
581.559	35209.58
581.767	35187.68
581.975	35161.26
582.183	35144.33
582.391	35120.53
582.599	35100.88
582.807	35076.53
583.015	35058.4
583.223	35026.18
583.431	35011.88
583.639	34997.53
583.847	34983.24
584.055	34962.78
584.263	34942.42
584.471	34923.57
584.678	34899.89
584.886	34878.31
585.094	34851.08
585.302	34824.62
585.51	34808.22
585.718	34780.82
585.925	34758.4
586.133	34734
586.341	34719.8
586.549	34702.49
586.756	34685.48
586.964	34667.29
587.172	34637.11
587.379	34615.06
587.587	34597.26
587.795	34574.46
588.002	34550.33
588.21	34525.64
588.417	34493.42
588.625	34460.06
588.833	34433.28
589.04	34400.98
589.248	34382.97
589.455	34368.88
589.663	34352.17
589.87	34326.73
590.078	34304.68
590.285	34287.48
590.492	34271.66
590.7	34253.98
590.907	34227.73
591.115	34197.98
591.322	34169.46
591.529	34147.49
591.737	34122.77
591.944	34097.49
592.151	34075.31
592.359	34050.93
592.566	34022.69
592.773	33988.93
592.981	33961.69
593.188	33935.33
593.395	33917.48
593.602	33891.29
593.809	33862.28
594.017	33833.95
594.224	33807.77
594.431	33773.42
594.638	33742.37
594.845	33721
595.052	33690.4
595.259	33673.2
595.466	33654.55
595.673	33638.73
595.88	33621.15
596.088	33595.17
596.295	33571.6
596.502	33547.35
596.709	33524.62
596.915	33499.86
597.122	33475.88
597.329	33459.09
597.536	33431.58
597.743	33409.97
597.95	33390.75
598.157	33363.26
598.364	33339.58
598.571	33300.68
598.777	33253.57
598.984	33217.71
599.191	33178.69
599.398	33121.84
599.605	33077.91
599.811	33024.11
600.018	32964.38
600.225	32902.78
600.431	32855.82
600.638	32811.46
600.845	32788.29
601.052	32764.64
601.258	32728.35
601.465	32692.57
601.671	32653.35
601.878	32580.82
602.085	32504.29
602.291	32419.73
602.498	32305.31
602.704	32164.15
602.911	32002.22
603.117	31811.53
603.324	31607.55
603.53	31384.11
603.737	31143.48
603.943	30896.22
604.15	30645.86
604.356	30393.86
604.562	30132.69
604.769	29872.75
604.975	29609.51
605.181	29345.77
605.388	29079.55
605.594	28817.09
605.8	28560
606.007	28298.35
606.213	28031.17
606.419	27765.11
606.625	27494.8
606.832	27228.35
607.038	26957.22
607.244	26699.49
607.45	26426.66
607.656	26160.04
607.863	25881.28
608.069	25594.53
608.275	25313.8
608.481	25042.86
608.687	24768.49
608.893	24490.6
609.099	24202.84
609.305	23920.98
609.511	23622.62
609.717	23338.4
609.923	23036.97
610.129	22745.6
610.335	22453.8
610.541	22155.93
610.747	21847.95
610.953	21536.28
611.159	21223.78
611.365	20905.38
611.571	20585.09
611.776	20276.8
611.982	19952.29
612.188	19632.89
612.394	19309.28
612.6	18988.69
612.806	18664.46
613.011	18334.8
613.217	18006.57
613.423	17677.33
613.628	17358.2
613.834	17040.13
614.04	16721.64
614.246	16415.95
614.451	16113.11
614.657	15811.58
614.862	15521.46
615.068	15238.24
615.274	14960.24
615.479	14695.8
615.685	14440.18
615.89	14187.82
616.096	13928.93
616.301	13669.66
616.507	13406.18
616.712	13145.77
616.918	12886.49
617.123	12618.75
617.329	12342.2
617.534	12067.2
617.74	11788.86
617.945	11504.28
618.15	11199.2
618.356	10728.31
618.561	9867.26
618.766	8825.29
618.972	7752.78
619.177	6705.57
619.382	5683.18
619.588	4693.62
619.793	4103.01
619.998	3407.43
620.203	2573.09
620.408	1567.88
620.614	584.23
