Data from test1_MAYP1115451__17__10-14-43-522.txt Node

Date: Wed Jun 12 10:14:43 MDT 2024
User: Modes Lab
Spectrometer: MAYP111545
Trigger mode: 0
Integration Time (sec): 8.000000E-3
Scans to average: 5
Electric dark correction enabled: true
Nonlinearity correction enabled: false
Boxcar width: 5
XAxis mode: Wavelengths
Number of Pixels in Spectrum: 2068
>>>>>Begin Spectral Data<<<<<
165.214	162.87
165.449	163.33
165.683	172.53
165.918	181.86
166.152	188.34
166.387	194.14
166.621	125.54
166.856	164.95
167.09	183.59
167.325	206.75
167.559	223.05
167.794	237.5
168.028	245.5
168.263	245.97
168.497	245.57
168.732	246.63
168.966	246.77
169.2	248.68
169.435	249.5
169.669	251.25
169.903	252.21
170.138	253.9
170.372	256.26
170.606	257.41
170.841	260.59
171.075	262.1
171.309	263.59
171.544	265.26
171.778	266.55
172.012	268.83
172.246	270.14
172.48	273.28
172.715	275.68
172.949	276.61
173.183	278.05
173.417	278.3
173.651	279.19
173.885	280.35
174.119	281.05
174.354	282.03
174.588	282.28
174.822	282.63
175.056	282.97
175.29	282.52
175.524	282.41
175.758	282.43
175.992	283.08
176.226	284.12
176.46	283.35
176.694	284.32
176.928	285.61
177.162	286.88
177.396	288.48
177.63	289.52
177.864	290.52
178.097	292.08
178.331	293.21
178.565	294.21
178.799	295.19
179.033	296.65
179.267	296.25
179.5	296.03
179.734	295.35
179.968	296.37
180.202	296.94
180.436	298.25
180.669	299.25
180.903	300.61
181.137	301.61
181.371	303.14
181.604	303.77
181.838	306.15
182.072	307.14
182.305	309.88
182.539	310.85
182.772	311.5
183.006	312.06
183.24	312.39
183.473	315.48
183.707	316.94
183.94	316.72
184.174	318.5
184.408	319.12
184.641	320.88
184.875	320.54
185.108	321.83
185.342	323.72
185.575	325.39
185.808	326.46
186.042	325.79
186.275	326.26
186.509	328.68
186.742	330.83
186.976	332.37
187.209	333.83
187.442	335.88
187.676	336.39
187.909	336.99
188.142	338.32
188.376	340.25
188.609	341.06
188.842	342.5
189.076	343.15
189.309	344.05
189.542	345.19
189.775	346.34
190.009	347.88
190.242	350.85
190.475	351.94
190.708	354.34
190.941	356.26
191.174	359.34
191.408	361.39
191.641	362.63
191.874	364.25
192.107	367.23
192.34	369.3
192.573	370.46
192.806	370.85
193.039	373.57
193.272	374.86
193.505	375.46
193.738	376.01
193.971	378.52
194.204	381.34
194.437	383.26
194.67	384.83
194.903	386.55
195.136	389.63
195.369	392.14
195.602	394.23
195.835	396.17
196.068	398.97
196.301	401.05
196.533	402.25
196.766	403.32
196.999	405.95
197.232	406.83
197.465	408.74
197.698	410.3
197.93	411.79
198.163	414.3
198.396	416.28
198.629	417.99
198.861	420.74
199.094	422.5
199.327	425.3
199.559	426.83
199.792	429.52
200.025	430.72
200.257	432.59
200.49	434.79
200.723	436.14
200.955	437.85
201.188	440.86
201.42	442.95
201.653	446.19
201.886	448.94
202.118	450.7
202.351	453.05
202.583	457.23
202.816	458.65
203.048	460.88
203.281	463.85
203.513	467.15
203.745	469.74
203.978	471.12
204.21	472.3
204.443	474.21
204.675	477.34
204.907	480.39
205.14	482.19
205.372	484.5
205.605	487.35
205.837	489.54
206.069	491.06
206.302	492.32
206.534	494.55
206.766	497.72
206.998	500.05
207.231	502.15
207.463	504.21
207.695	505.45
207.927	507.86
208.159	510.48
208.392	512.12
208.624	514.01
208.856	515.79
209.088	518.37
209.32	520.88
209.552	522.26
209.784	524.26
210.017	525.97
210.249	528.7
210.481	531.45
210.713	532.86
210.945	533.95
211.177	536.17
211.409	537.86
211.641	540.34
211.873	541.26
212.105	543.81
212.337	545.68
212.569	546.88
212.801	548.81
213.033	551.23
213.264	552.72
213.496	556.21
213.728	559.05
213.96	561.41
214.192	562.95
214.424	565.05
214.656	567.94
214.887	569.06
215.119	572.06
215.351	573.32
215.583	574.63
215.815	577.63
216.046	578.66
216.278	579.72
216.51	583.03
216.741	583.85
216.973	586.26
217.205	586.32
217.436	588.5
217.668	590.43
217.9	592.46
218.131	593.61
218.363	594.68
218.595	597.23
218.826	598.03
219.058	598.95
219.289	601.15
219.521	602.59
219.752	605.34
219.984	607.08
220.215	608.01
220.447	609.54
220.678	611.14
220.91	613.21
221.141	613.88
221.373	616.35
221.604	615.83
221.836	615.72
222.067	616.52
222.298	616.83
222.53	616.81
222.761	617.12
222.993	618.35
223.224	619.34
223.455	619.66
223.686	619.46
223.918	619.12
224.149	621.48
224.38	623.01
224.612	622.97
224.843	624.37
225.074	626.01
225.305	626.79
225.536	627.12
225.768	628.43
225.999	627.37
226.23	629.1
226.461	629.85
226.692	629.43
226.923	629.94
227.155	631.75
227.386	631.63
227.617	630.26
227.848	630.3
228.079	630.66
228.31	629.5
228.541	631.81
228.772	632.12
229.003	632.12
229.234	632.74
229.465	634.08
229.696	633.01
229.927	633.43
230.158	634.43
230.389	634.9
230.62	635.55
230.85	635.7
231.081	632.9
231.312	632.5
231.543	633.59
231.774	633.94
232.005	634.34
232.236	634.26
232.466	633.57
232.697	634.03
232.928	634.83
233.159	634.59
233.389	636.57
233.62	638.79
233.851	638.3
234.082	637.12
234.312	636.45
234.543	635.55
234.774	635.46
235.004	635.72
235.235	635.32
235.466	634.26
235.696	632.95
235.927	631.55
236.157	632.19
236.388	633.39
236.618	634.37
236.849	634.74
237.08	634.35
237.31	634.1
237.541	634.68
237.771	635.19
238.002	635.45
238.232	636.28
238.463	636.66
238.693	634.77
238.923	633.65
239.154	632.7
239.384	631.25
239.615	631.74
239.845	631.35
240.075	629.77
240.306	627.79
240.536	627.01
240.766	625.46
240.997	624.95
241.227	625.46
241.457	625.32
241.687	624.5
241.918	625.46
242.148	624.25
242.378	624.19
242.608	623.28
242.839	623.14
243.069	622.25
243.299	622.46
243.529	623.35
243.759	623.52
243.989	623.65
244.22	624.25
244.45	623.9
244.68	623.21
244.91	624.06
245.14	623.77
245.37	624.99
245.6	624.88
245.83	624.92
246.06	623.05
246.29	622.26
246.52	620.79
246.75	619.55
246.98	618.83
247.21	619.35
247.44	617.55
247.67	617.28
247.9	615.95
248.13	616.48
248.359	615.95
248.589	615.14
248.819	614.43
249.049	613.99
249.279	612.94
249.509	612.92
249.738	611.77
249.968	611.57
250.198	610.81
250.428	611.35
250.657	609.55
250.887	609.01
251.117	608.57
251.347	607.35
251.576	606.37
251.806	605.72
252.036	604.23
252.265	603.75
252.495	602.43
252.725	602.03
252.954	600.39
253.184	600.01
253.413	597.74
253.643	596.81
253.873	597.48
254.102	597.72
254.332	597.5
254.561	596.66
254.791	596.08
255.02	595.65
255.25	595.35
255.479	594.61
255.708	594.35
255.938	594.43
256.167	592.99
256.397	591.25
256.626	590.45
256.856	590.52
257.085	589.85
257.314	588.72
257.544	588.32
257.773	587.32
258.002	586.7
258.232	585.65
258.461	585.14
258.69	585.74
258.919	585.1
259.149	584.63
259.378	583.86
259.607	582.57
259.836	582.08
260.065	581.55
260.295	581.59
260.524	581.5
260.753	581.01
260.982	580.7
261.211	579.5
261.44	579.3
261.669	578.26
261.899	577.01
262.128	577.55
262.357	576.68
262.586	576.75
262.815	574.68
263.044	573.23
263.273	574.99
263.502	574.63
263.731	574.55
263.96	572.95
264.189	572.03
264.418	571.86
264.646	569.32
264.875	568.15
265.104	566.99
265.333	567.19
265.562	566.39
265.791	563.5
266.02	561.92
266.249	560.32
266.477	560.45
266.706	559.1
266.935	556.61
267.164	557.32
267.393	556.26
267.621	555.12
267.85	554.43
268.079	554.26
268.307	552.52
268.536	552.17
268.765	552.83
268.993	551.74
269.222	552.59
269.451	553.5
269.679	553.32
269.908	553.81
270.137	553.21
270.365	552.94
270.594	552.97
270.822	552.66
271.051	552.65
271.279	551.48
271.508	553.06
271.736	554.14
271.965	554.17
272.193	554.39
272.422	554.61
272.65	554.65
272.879	553.88
273.107	553.45
273.336	554.21
273.564	553.92
273.792	553.75
274.021	550.72
274.249	548.86
274.477	547.86
274.706	546.5
274.934	544.05
275.162	541.97
275.391	541.97
275.619	541.21
275.847	540.14
276.075	539.28
276.304	538.3
276.532	537.01
276.76	534.68
276.988	533.28
277.216	532.01
277.445	532.37
277.673	532.08
277.901	531.19
278.129	531.14
278.357	528.63
278.585	528.21
278.813	527.34
279.041	526.88
279.269	526.72
279.497	526.48
279.725	526.32
279.954	524.39
280.182	524.17
280.41	522.55
280.637	520.77
280.865	522.19
281.093	522.26
281.321	521.19
281.549	520.65
281.777	520.14
282.005	519.94
282.233	519.3
282.461	520.45
282.689	521.75
282.916	521.92
283.144	521.34
283.372	520.81
283.6	519.85
283.828	519.3
284.055	519.79
284.283	520.06
284.511	519.32
284.739	519.05
284.966	519.12
285.194	517.41
285.422	516.83
285.649	516.39
285.877	515.05
286.105	513.57
286.332	514.55
286.56	513.68
286.788	511.95
287.015	511.94
287.243	511.54
287.47	509.72
287.698	508.75
287.925	508.48
288.153	507.68
288.381	507.25
288.608	507.37
288.836	506.15
289.063	505.61
289.29	506.06
289.518	504.85
289.745	504.34
289.973	503.95
290.2	503.63
290.428	502.43
290.655	502.21
290.882	501.85
291.11	501.54
291.337	500.03
291.564	499.72
291.792	497.77
292.019	497.43
292.246	496.06
292.473	495.7
292.701	495.03
292.928	494.75
293.155	493.01
293.382	493.86
293.61	493.12
293.837	493.81
294.064	493.01
294.291	493.06
294.518	491.65
294.745	491.25
294.972	490.81
295.2	489.79
295.427	489.7
295.654	490.19
295.881	488.43
296.108	488.06
296.335	486.85
296.562	487.32
296.789	486.85
297.016	487.72
297.243	487.52
297.47	486.79
297.697	487.03
297.924	486.17
298.151	486.25
298.378	485.95
298.604	485.23
298.831	484.9
299.058	484.3
299.285	484.45
299.512	483.55
299.739	482.92
299.966	482.15
300.192	480.95
300.419	481.08
300.646	479.59
300.873	478.5
301.099	478.01
301.326	478.01
301.553	477.26
301.78	476.77
302.006	476.03
302.233	475.88
302.46	475.77
302.686	474.75
302.913	472.81
303.14	472.28
303.366	471.94
303.593	470.32
303.819	468.55
304.046	467.7
304.272	466.83
304.499	466.74
304.725	465.74
304.952	465.25
305.179	465.41
305.405	466.06
305.631	466.39
305.858	466.99
306.084	466.99
306.311	467.3
306.537	466.59
306.764	466.43
306.99	464.7
307.216	464.74
307.443	463.35
307.669	462.25
307.895	461.52
308.122	461.5
308.348	459.65
308.574	460.3
308.801	459.79
309.027	459.88
309.253	459.63
309.479	460.1
309.706	460.35
309.932	460.26
310.158	460.79
310.384	461.08
310.61	462.03
310.837	464.01
311.063	462.32
311.289	462.32
311.515	461.86
311.741	461.32
311.967	462.7
312.193	462.14
312.419	463.5
312.645	462.92
312.871	462.06
313.097	460.45
313.323	458.92
313.549	460.48
313.775	462.01
314.001	461.59
314.227	462.06
314.453	461.05
314.679	461.17
314.905	461.74
315.131	463.03
315.357	464.41
315.583	464.14
315.809	465.1
316.034	464.88
316.26	464.74
316.486	464.74
316.712	465.88
316.938	465.86
317.163	467.12
317.389	466.9
317.615	467.21
317.841	466.46
318.066	468.05
318.292	468.37
318.518	470.01
318.743	469.66
318.969	471.14
319.195	471.65
319.42	472.35
319.646	472.57
319.872	473.1
320.097	475.19
320.323	476.41
320.548	477.45
320.774	479.43
320.999	479.05
321.225	480.66
321.45	481.85
321.676	482.03
321.901	483.77
322.127	485.12
322.352	486.35
322.578	486.39
322.803	488.85
323.029	489.99
323.254	489.85
323.479	491.85
323.705	494.25
323.93	495.05
324.155	497.35
324.381	499.54
324.606	501.41
324.831	504.41
325.057	506.17
325.282	508.37
325.507	510.05
325.732	512.57
325.958	515.26
326.183	516.88
326.408	519.88
326.633	523.35
326.858	526.23
327.084	528.35
327.309	530.75
327.534	533.5
327.759	534.81
327.984	538.55
328.209	541.65
328.434	545.45
328.659	547.45
328.884	551.48
329.109	554.34
329.334	556.7
329.559	560.48
329.784	563.81
330.009	567.61
330.234	571.81
330.459	574.23
330.684	578.81
330.909	580.57
331.134	584.75
331.359	589.15
331.584	592.65
331.809	597.23
332.034	601.81
332.259	604.68
332.483	608.66
332.708	613.79
332.933	618.68
333.158	621.9
333.383	628.55
333.607	634.17
333.832	638.92
334.057	644.32
334.282	649.19
334.506	654.75
334.731	659.81
334.956	665.32
335.18	670.86
335.405	676.17
335.63	682.68
335.854	688.5
336.079	694.7
336.303	699.59
336.528	704.83
336.753	710.77
336.977	714.57
337.202	722.46
337.426	729.65
337.651	735.61
337.875	742.23
338.1	748.65
338.324	755.15
338.549	761.06
338.773	769.81
338.997	778.12
339.222	785.17
339.446	792.23
339.671	799.88
339.895	806.75
340.119	813.1
340.344	820.92
340.568	829.32
340.792	838.08
341.017	845.05
341.241	852.12
341.465	857.86
341.689	866.43
341.914	876.05
342.138	882.83
342.362	891.37
342.586	901.74
342.811	910.55
343.035	917.68
343.259	924.61
343.483	933.23
343.707	942.3
343.931	954.52
344.155	964.57
344.38	974.77
344.604	984.12
344.828	994.48
345.052	1002.72
345.276	1010.99
345.5	1021.61
345.724	1030.99
345.948	1041.66
346.172	1050.39
346.396	1058.03
346.62	1067.97
346.844	1077.28
347.068	1088.97
347.292	1100.41
347.515	1110.9
347.739	1123.08
347.963	1132.74
348.187	1143.12
348.411	1153.65
348.635	1164.74
348.859	1177.88
349.082	1187.01
349.306	1197.12
349.53	1207.75
349.754	1215.9
349.977	1227.95
350.201	1238.46
350.425	1249.66
350.649	1260.52
350.872	1272.61
351.096	1283.57
351.32	1292.83
351.543	1304.65
351.767	1315.55
351.99	1325.79
352.214	1337.14
352.438	1347.08
352.661	1356.75
352.885	1367.99
353.108	1379.63
353.332	1390.68
353.555	1402.65
353.779	1413.61
354.002	1427.3
354.226	1439.32
354.449	1452.12
354.673	1463.28
354.896	1475.12
355.12	1489.3
355.343	1501.57
355.566	1516.19
355.79	1529.95
356.013	1542.25
356.237	1555.7
356.46	1567.39
356.683	1580.14
356.907	1590.01
357.13	1602.83
357.353	1617.7
357.576	1630.55
357.8	1643.08
358.023	1652.01
358.246	1662.95
358.469	1676.9
358.693	1688.85
358.916	1701.17
359.139	1714.39
359.362	1728.54
359.585	1742.86
359.808	1755.01
360.031	1768.08
360.255	1781.34
360.478	1797.81
360.701	1813.23
360.924	1827.05
361.147	1840.61
361.37	1854.06
361.593	1868.43
361.816	1882.05
362.039	1897.77
362.262	1910.5
362.485	1923.5
362.708	1935.55
362.931	1947.01
363.154	1961.54
363.377	1972.94
363.599	1986.1
363.822	1999.3
364.045	2013.63
364.268	2030.75
364.491	2042.94
364.714	2056.45
364.936	2069.15
365.159	2085.1
365.382	2098.68
365.605	2110.7
365.828	2129.61
366.05	2145.65
366.273	2160.43
366.496	2174.43
366.718	2188.3
366.941	2204.12
367.164	2220.08
367.386	2237.3
367.609	2255.35
367.832	2273.5
368.054	2290.75
368.277	2303.19
368.5	2318.92
368.722	2335.77
368.945	2351.05
369.167	2366.32
369.39	2381.7
369.612	2399.68
369.835	2417.05
370.057	2432.88
370.28	2449.75
370.502	2464.75
370.725	2481.68
370.947	2498.9
371.169	2514.9
371.392	2535.08
371.614	2553.46
371.837	2569.92
372.059	2587.26
372.281	2603.55
372.504	2620.3
372.726	2636.23
372.948	2652.83
373.171	2669.75
373.393	2687.08
373.615	2705.48
373.837	2723.23
374.06	2740.34
374.282	2759.99
374.504	2777.37
374.726	2796.61
374.948	2816.05
375.17	2836.45
375.393	2857.41
375.615	2877.9
375.837	2897.55
376.059	2920.35
376.281	2941.41
376.503	2961.5
376.725	2981.83
376.947	3002.65
377.169	3021.26
377.391	3043.68
377.613	3064.15
377.835	3085.83
378.057	3105.19
378.279	3128.48
378.501	3147.72
378.723	3169.63
378.945	3189.9
379.167	3210.21
379.389	3234.23
379.611	3258.77
379.833	3279.68
380.054	3304.21
380.276	3326.85
380.498	3353.92
380.72	3377.15
380.942	3401.88
381.163	3424.94
381.385	3450.86
381.607	3476.99
381.829	3500.97
382.05	3527.81
382.272	3553.52
382.494	3580.25
382.716	3604.88
382.937	3630.9
383.159	3658.46
383.381	3686.17
383.602	3707.3
383.824	3731.88
384.045	3757.83
384.267	3784.97
384.488	3810.06
384.71	3833.79
384.932	3853.48
385.153	3881.83
385.375	3908.35
385.596	3933.17
385.818	3957.26
386.039	3989.72
386.261	4019.08
386.482	4047.99
386.703	4074.92
386.925	4105.48
387.146	4136.01
387.368	4172.5
387.589	4199.1
387.81	4225.17
388.032	4253.26
388.253	4282.9
388.474	4308.99
388.696	4336.88
388.917	4365.14
389.138	4393.41
389.359	4423.03
389.581	4451.79
389.802	4481.06
390.023	4515.68
390.244	4546.61
390.465	4577.92
390.687	4609.1
390.908	4643.39
391.129	4678.14
391.35	4710.06
391.571	4743.48
391.792	4773.48
392.013	4804.9
392.234	4836.79
392.455	4867.34
392.677	4900.3
392.898	4933.01
393.119	4965.5
393.34	4998.79
393.561	5027.95
393.782	5058.19
394.003	5094.05
394.223	5126.34
394.444	5160.81
394.665	5192.39
394.886	5224.1
395.107	5256.92
395.328	5293.55
395.549	5328.15
395.77	5359.81
395.99	5398.83
396.211	5436.25
396.432	5468.03
396.653	5501.65
396.874	5538.35
397.094	5573.75
397.315	5607.3
397.536	5642.43
397.757	5674.85
397.977	5710.79
398.198	5747.97
398.419	5781.41
398.639	5814.65
398.86	5846.41
399.081	5883.68
399.301	5920.06
399.522	5952.66
399.742	5984.46
399.963	6022.26
400.184	6054.75
400.404	6084.25
400.625	6118.34
400.845	6151.08
401.066	6185.66
401.286	6222.3
401.507	6256.23
401.727	6289.88
401.948	6321.94
402.168	6358.48
402.388	6393.26
402.609	6433.54
402.829	6471.45
403.05	6503.46
403.27	6537.68
403.49	6572.88
403.711	6612.3
403.931	6646.63
404.151	6679.17
404.372	6716.97
404.592	6757.95
404.812	6787.39
405.032	6816.3
405.253	6852.01
405.473	6890.59
405.693	6929.37
405.913	6968.39
406.133	6996.54
406.353	7033.35
406.574	7069.08
406.794	7103.26
407.014	7135.75
407.234	7174.83
407.454	7214.5
407.674	7252.83
407.894	7286.66
408.114	7319.26
408.334	7355.55
408.554	7400.12
408.774	7435.52
408.994	7471.99
409.214	7514.41
409.434	7557.72
409.654	7594.43
409.874	7633.32
410.094	7669.95
410.314	7710.66
410.534	7751.52
410.754	7786.65
410.974	7822.83
411.193	7864.05
411.413	7907.79
411.633	7948.12
411.853	7985.43
412.073	8026.5
412.292	8063.45
412.512	8106.55
412.732	8144.68
412.952	8184.06
413.171	8226.15
413.391	8266.86
413.611	8311.05
413.831	8352.77
414.05	8391.92
414.27	8429.77
414.489	8476.97
414.709	8518.94
414.929	8554.17
415.148	8596.08
415.368	8640.86
415.587	8682.74
415.807	8722.06
416.026	8761.77
416.246	8802.75
416.465	8845.46
416.685	8890.17
416.904	8926.14
417.124	8970.52
417.343	9017.74
417.563	9063.99
417.782	9104.17
418.002	9153.37
418.221	9197.34
418.44	9237.23
418.66	9279.55
418.879	9324.65
419.098	9367.43
419.318	9412.5
419.537	9457.3
419.756	9500.26
419.976	9537.66
420.195	9580.83
420.414	9618.43
420.633	9660.9
420.853	9706.97
421.072	9750.52
421.291	9788.97
421.51	9834.25
421.729	9876.79
421.948	9920.66
422.168	9965.9
422.387	10015.9
422.606	10062.15
422.825	10107.21
423.044	10152.99
423.263	10197.25
423.482	10239.85
423.701	10288.97
423.92	10332.12
424.139	10378.12
424.358	10424.01
424.577	10466.25
424.796	10509.15
425.015	10554.65
425.234	10603.66
425.453	10646.97
425.672	10694.05
425.891	10741.92
426.11	10790.92
426.328	10838.28
426.547	10884.94
426.766	10926.94
426.985	10970.34
427.204	11017.23
427.422	11065.63
427.641	11109.35
427.86	11158.74
428.079	11206.25
428.297	11252.08
428.516	11297.39
428.735	11350.39
428.954	11400.57
429.172	11449.41
429.391	11505.39
429.61	11555.77
429.828	11604.77
430.047	11656.28
430.265	11705.88
430.484	11746.9
430.703	11796.52
430.921	11843.52
431.14	11883.17
431.358	11926.63
431.577	11971.63
431.795	12019.43
432.014	12065.95
432.232	12113.65
432.451	12157.39
432.669	12204.81
432.887	12256.48
433.106	12306.48
433.324	12352.48
433.543	12404.15
433.761	12451.03
433.979	12503.75
434.198	12547.99
434.416	12597.97
434.634	12636.72
434.853	12688.74
435.071	12730.66
435.289	12778.65
435.507	12825.19
435.726	12868.03
435.944	12912.63
436.162	12961.85
436.38	13004.17
436.598	13052.39
436.817	13099.12
437.035	13157.08
437.253	13203.79
437.471	13257.35
437.689	13308.17
437.907	13352.48
438.125	13400.7
438.343	13449.28
438.561	13499.79
438.78	13549.74
438.998	13602.81
439.216	13648.61
439.434	13690.1
439.652	13735.26
439.869	13783.83
440.087	13831.88
440.305	13882.23
440.523	13937.52
440.741	13981.85
440.959	14027.63
441.177	14078.43
441.395	14120.5
441.613	14170.17
441.831	14218.95
442.048	14267.95
442.266	14315.01
442.484	14360.12
442.702	14412.99
442.919	14463.17
443.137	14518.9
443.355	14568.41
443.573	14619.21
443.79	14667.46
444.008	14720.46
444.226	14774.37
444.443	14818.05
444.661	14867.12
444.879	14913.88
445.096	14957.15
445.314	15002.86
445.532	15046.9
445.749	15092.26
445.967	15135.21
446.184	15185.66
446.402	15229.52
446.619	15267.94
446.837	15321.55
447.054	15368.75
447.272	15417.35
447.489	15462.68
447.707	15504.59
447.924	15555.5
448.141	15605.03
448.359	15654.17
448.576	15700.75
448.794	15746.19
449.011	15799.66
449.228	15846.43
449.446	15895.15
449.663	15940.54
449.88	15990.15
450.098	16040.77
450.315	16093.37
450.532	16142.52
450.749	16186.77
450.967	16237.97
451.184	16290.7
451.401	16342.17
451.618	16391.08
451.835	16432.12
452.052	16484.65
452.27	16530.72
452.487	16576.86
452.704	16616.08
452.921	16660.48
453.138	16715.15
453.355	16754.35
453.572	16797.39
453.789	16842.05
454.006	16882.63
454.223	16939.86
454.44	16984.12
454.657	17030.83
454.874	17075.86
455.091	17126.92
455.308	17177.19
455.525	17227.3
455.742	17279.92
455.959	17326.85
456.176	17376.48
456.393	17426.99
456.609	17472.66
456.826	17517.74
457.043	17569.1
457.26	17624.14
457.477	17666.95
457.693	17708.97
457.91	17749.32
458.127	17791.65
458.344	17834.54
458.56	17873.52
458.777	17916.15
458.994	17948.99
459.21	17992.1
459.427	18024.77
459.644	18059.86
459.86	18096.75
460.077	18138.85
460.294	18174.15
460.51	18211.48
460.727	18252.39
460.943	18290.45
461.16	18331.75
461.376	18375.57
461.593	18418.46
461.809	18458.55
462.026	18503.32
462.242	18548.12
462.459	18591.21
462.675	18630.08
462.892	18673.26
463.108	18713.48
463.324	18754.59
463.541	18797.97
463.757	18836.3
463.974	18872.1
464.19	18917.63
464.406	18958.72
464.623	18993.68
464.839	19037.37
465.055	19091.74
465.271	19141.52
465.488	19188.86
465.704	19229.12
465.92	19272.99
466.136	19329.19
466.353	19379.54
466.569	19430.1
466.785	19484.94
467.001	19547.25
467.217	19597.54
467.433	19651.61
467.649	19713.35
467.865	19774.3
468.082	19845.75
468.298	19902.85
468.514	19961.15
468.73	20028.95
468.946	20092.94
469.162	20147.08
469.378	20206.32
469.594	20274.08
469.81	20330.43
470.026	20386.68
470.242	20447.14
470.457	20512.12
470.673	20583.65
470.889	20651.05
471.105	20717.41
471.321	20787.06
471.537	20859.9
471.753	20925.7
471.968	20993.68
472.184	21072.1
472.4	21140.32
472.616	21211.34
472.832	21284.86
473.047	21355.75
473.263	21426.97
473.479	21502.77
473.694	21575.45
473.91	21644.99
474.126	21723.43
474.341	21802.48
474.557	21871.48
474.773	21942.26
474.988	22009.14
475.204	22079.63
475.42	22156.06
475.635	22223.83
475.851	22289.32
476.066	22359.74
476.282	22436.37
476.497	22501.35
476.713	22562.03
476.928	22627.94
477.144	22695.28
477.359	22768.19
477.575	22828.95
477.79	22885.99
478.005	22952.28
478.221	23019.1
478.436	23083.61
478.651	23140.83
478.867	23212.06
479.082	23276.7
479.297	23336.57
479.513	23401.48
479.728	23451.85
479.943	23502.03
480.159	23557.65
480.374	23616.23
480.589	23666.99
480.804	23718.23
481.019	23765.94
481.235	23809.9
481.45	23856.5
481.665	23907.59
481.88	23949.3
482.095	24000.66
482.31	24059.46
482.525	24112.79
482.741	24157.37
482.956	24205.23
483.171	24253.5
483.386	24310.52
483.601	24356.85
483.816	24397.81
484.031	24444.14
484.246	24483.5
484.461	24527.37
484.676	24571.77
484.891	24618.19
485.105	24652.9
485.32	24691.08
485.535	24734.39
485.75	24778.65
485.965	24829.25
486.18	24876.79
486.395	24914.26
486.609	24964.06
486.824	25013.41
487.039	25052.66
487.254	25089.28
487.469	25139.14
487.683	25183.35
487.898	25216.55
488.113	25254.26
488.327	25290.95
488.542	25332.66
488.757	25376.03
488.972	25418.14
489.186	25449.28
489.401	25482.12
489.615	25520.05
489.83	25555.43
490.045	25592.26
490.259	25628.32
490.474	25656.19
490.688	25691.55
490.903	25721.1
491.117	25747.65
491.332	25777.06
491.546	25811.92
491.761	25844.61
491.975	25866.19
492.19	25894.75
492.404	25930.97
492.618	25959.74
492.833	25988.15
493.047	26013.46
493.262	26044.66
493.476	26072.39
493.69	26103.52
493.905	26126.01
494.119	26154.43
494.333	26189.5
494.547	26215.12
494.762	26238.65
494.976	26274.55
495.19	26299.03
495.404	26321.3
495.619	26351.61
495.833	26381.5
496.047	26405.28
496.261	26423.7
496.475	26434.88
496.689	26453.12
496.903	26466.9
497.117	26463.46
497.332	26451.03
497.546	26449.59
497.76	26434.83
497.974	26422.14
498.188	26408.77
498.402	26390.19
498.616	26384.1
498.83	26383.7
499.044	26369.28
499.258	26363.94
499.472	26366.65
499.685	26386.17
499.899	26387.32
500.113	26405.99
500.327	26413.52
500.541	26429.54
500.755	26447.37
500.969	26467.74
501.183	26477.37
501.396	26500.72
501.61	26521.41
501.824	26547.65
502.038	26559.81
502.251	26588.85
502.465	26603.75
502.679	26622.1
502.892	26643.45
503.106	26661.06
503.32	26671.77
503.533	26695.74
503.747	26715.1
503.961	26742.77
504.174	26766.28
504.388	26792.52
504.602	26818.12
504.815	26857.37
505.029	26896.48
505.242	26941.45
505.456	26989.55
505.669	27044.65
505.883	27099.37
506.096	27151.77
506.31	27194.7
506.523	27251.7
506.736	27303.97
506.95	27364.83
507.163	27417.85
507.377	27473.57
507.59	27523.45
507.803	27575.7
508.017	27641.45
508.23	27699.45
508.443	27761.17
508.657	27831.9
508.87	27894.1
509.083	27962.46
509.296	28033.63
509.51	28111.41
509.723	28196.26
509.936	28271.55
510.149	28365.86
510.363	28450.85
510.576	28538.03
510.789	28628.54
511.002	28725.26
511.215	28820.54
511.428	28918.55
511.641	29019.32
511.854	29114.48
512.067	29209.92
512.28	29323.65
512.493	29418.5
512.707	29516.86
512.92	29628.94
513.132	29730.65
513.345	29832.32
513.558	29941.52
513.771	30045.9
513.984	30156.79
514.197	30270.01
514.41	30385.63
514.623	30493.63
514.836	30603.14
515.049	30701.01
515.262	30801.14
515.474	30909.83
515.687	31008.9
515.9	31099.63
516.113	31202.08
516.325	31296.43
516.538	31382.65
516.751	31469.39
516.964	31556.61
517.176	31654.72
517.389	31753.37
517.602	31843.77
517.814	31920.72
518.027	32012.08
518.24	32099.63
518.452	32178.26
518.665	32253.45
518.877	32341.05
519.09	32416.35
519.303	32493.63
519.515	32557.35
519.728	32620.92
519.94	32684.97
520.153	32758.43
520.365	32825.25
520.578	32897.37
520.79	32966.85
521.002	33034.43
521.215	33093.32
521.427	33146.46
521.64	33199.99
521.852	33252.39
522.064	33310.06
522.277	33364.3
522.489	33415.05
522.701	33464.55
522.914	33507.88
523.126	33557.65
523.338	33595.94
523.551	33642.45
523.763	33692.92
523.975	33747.54
524.187	33805.54
524.399	33862.26
524.612	33914.37
524.824	33963.28
525.036	34007.66
525.248	34050.48
525.46	34095.95
525.672	34143.01
525.884	34183.48
526.096	34229.15
526.308	34256.52
526.521	34290.68
526.733	34316.68
526.945	34340.34
527.157	34373.21
527.369	34401.85
527.581	34433.37
527.793	34456.97
528.004	34480.45
528.216	34515.08
528.428	34538.59
528.64	34572.25
528.852	34594.83
529.064	34621.05
529.276	34649.7
529.488	34672.06
529.699	34698.46
529.911	34733.75
530.123	34770.46
530.335	34803.48
530.547	34824.52
530.758	34853.43
530.97	34891.94
531.182	34920.26
531.393	34964.01
531.605	35007.28
531.817	35055.3
532.029	35100.81
532.24	35129.72
532.452	35154.21
532.663	35181.75
532.875	35210.43
533.087	35235.19
533.298	35243.66
533.51	35264.5
533.721	35275.41
533.933	35282.15
534.144	35288.41
534.356	35293.68
534.567	35307.63
534.779	35319.35
534.99	35341.63
535.202	35366.3
535.413	35396.43
535.624	35421.63
535.836	35448.55
536.047	35469.59
536.259	35485.63
536.47	35502.66
536.681	35520.7
536.893	35538.35
537.104	35560.92
537.315	35577.57
537.526	35594.75
537.738	35603.12
537.949	35612.08
538.16	35622.28
538.371	35636.74
538.582	35659.86
538.794	35686.61
539.005	35709.54
539.216	35725.81
539.427	35738.14
539.638	35761.63
539.849	35774.79
540.06	35784.95
540.272	35810.1
540.483	35824.61
540.694	35844.46
540.905	35864.19
541.116	35871.75
541.327	35881.34
541.538	35885.54
541.749	35907.57
541.96	35904.34
542.17	35915.57
542.381	35934.05
542.592	35941.17
542.803	35957.7
543.014	35960.57
543.225	35962.92
543.436	35964.19
543.647	35971.01
543.857	35991.99
544.068	36000.21
544.279	36018.79
544.49	36023.61
544.701	36038.32
544.911	36053.01
545.122	36062.01
545.333	36078.43
545.543	36090.34
545.754	36103.7
545.965	36113.15
546.175	36125.3
546.386	36135.1
546.597	36146.46
546.807	36162.81
547.018	36176.15
547.229	36182.59
547.439	36193.45
547.65	36199.85
547.86	36210.55
548.071	36227.92
548.281	36231.01
548.492	36233.66
548.702	36236.17
548.913	36240.99
549.123	36241.55
549.333	36241.03
549.544	36238.45
549.754	36242.15
549.965	36249.23
550.175	36266.15
550.385	36271.77
550.596	36289.85
550.806	36311.65
551.016	36321.23
551.227	36343.45
551.437	36356.1
551.647	36370.75
551.857	36388.35
552.068	36399.57
552.278	36411.19
552.488	36415.63
552.698	36429.7
552.908	36437.5
553.119	36432.9
553.329	36441.52
553.539	36428.32
553.749	36435.08
553.959	36435.1
554.169	36436.32
554.379	36436.25
554.589	36445.34
554.799	36438.61
555.009	36438.95
555.219	36444.08
555.429	36449.88
555.639	36449.21
555.849	36461.01
556.059	36453.65
556.269	36451.17
556.479	36454.14
556.689	36461.68
556.899	36461.99
557.109	36476.72
557.319	36480.99
557.528	36477.7
557.738	36469.21
557.948	36468.25
558.158	36464.15
558.368	36462.7
558.577	36457.9
558.787	36464.1
558.997	36456.05
559.207	36438.65
559.416	36420.65
559.626	36396.32
559.836	36381.85
560.045	36379.92
560.255	36375.41
560.465	36370.25
560.674	36376.7
560.884	36373.03
561.093	36364.63
561.303	36361.86
561.512	36362.34
561.722	36373.08
561.932	36382.39
562.141	36386.74
562.351	36391.28
562.56	36394.14
562.769	36398.88
562.979	36396.1
563.188	36405.9
563.398	36408.65
563.607	36406.59
563.817	36406.03
564.026	36397.34
564.235	36393.79
564.445	36397.39
564.654	36392.12
564.863	36393.03
565.073	36379.9
565.282	36387.72
565.491	36378.41
565.7	36361.63
565.91	36365.26
566.119	36357.66
566.328	36344.68
566.537	36331.32
566.746	36313.28
566.956	36298.5
567.165	36277.86
567.374	36264.81
567.583	36243.46
567.792	36236.15
568.001	36225.95
568.21	36198.88
568.419	36181.61
568.628	36168.55
568.837	36154.57
569.046	36131.66
569.255	36112.46
569.464	36092.81
569.673	36071.39
569.882	36052.17
570.091	36023.65
570.3	36002.15
570.509	35985.54
570.718	35984.72
570.927	35971.97
571.135	35953.66
571.344	35952.95
571.553	35949.01
571.762	35942.92
571.971	35940.25
572.18	35937.94
572.388	35927.54
572.597	35917.21
572.806	35906.86
573.014	35883.48
573.223	35862.97
573.432	35846.28
573.641	35819.45
573.849	35788.77
574.058	35763.39
574.266	35742.81
574.475	35713.41
574.684	35702.92
574.892	35695.21
575.101	35686.25
575.309	35671.32
575.518	35658.72
575.726	35647.06
575.935	35643.21
576.143	35634.08
576.352	35623.81
576.56	35609.54
576.769	35600.92
576.977	35583.81
577.186	35562.17
577.394	35544.54
577.602	35519.59
577.811	35508.17
578.019	35500.59
578.228	35487.75
578.436	35472.74
578.644	35448.72
578.852	35423.66
579.061	35400.43
579.269	35372.01
579.477	35347.41
579.685	35330.7
579.894	35320.5
580.102	35298.55
580.31	35275.37
580.518	35249.06
580.726	35236.55
580.935	35218.28
581.143	35208.01
581.351	35184.12
581.559	35159.25
581.767	35134.74
581.975	35112.92
582.183	35094.32
582.391	35072.85
582.599	35056.45
582.807	35040.66
583.015	35014.85
583.223	35001.12
583.431	34985.95
583.639	34978.21
583.847	34969.37
584.055	34959.46
584.263	34929.12
584.471	34902.48
584.678	34877.28
584.886	34856.63
585.094	34838.43
585.302	34814.26
585.51	34795.19
585.718	34773.34
585.925	34748.46
586.133	34733.88
586.341	34720.79
586.549	34707.55
586.756	34685.34
586.964	34674.21
587.172	34644.79
587.379	34611.25
587.587	34593.17
587.795	34576.65
588.002	34552.86
588.21	34528.01
588.417	34496.52
588.625	34465.92
588.833	34441.39
589.04	34421.75
589.248	34391.08
589.455	34375.17
589.663	34367.88
589.87	34352.34
590.078	34325.43
590.285	34300.08
590.492	34281.61
590.7	34265.34
590.907	34243.26
591.115	34220.55
591.322	34201.41
591.529	34182.28
591.737	34158.77
591.944	34125.01
592.151	34098.74
592.359	34077.79
592.566	34047.75
592.773	34014.5
592.981	33984.43
593.188	33958.63
593.395	33932.17
593.602	33898.06
593.809	33869.57
594.017	33847.52
594.224	33825.7
594.431	33792.25
594.638	33755.52
594.845	33734.63
595.052	33709.83
595.259	33692.94
595.466	33666.23
595.673	33643.48
595.88	33626.61
596.088	33604.92
596.295	33577.23
596.502	33547.68
596.709	33514.92
596.915	33496.54
597.122	33474.63
597.329	33447.3
597.536	33414.26
597.743	33397.03
597.95	33368.81
598.157	33348.95
598.364	33313.61
598.571	33270.7
598.777	33226.65
598.984	33190.77
599.191	33136.88
599.398	33085.06
599.605	33045.83
599.811	33005.65
600.018	32949.95
600.225	32908.25
600.431	32855.74
600.638	32819.01
600.845	32785.03
601.052	32762.68
601.258	32734.46
601.465	32695.97
601.671	32648.81
601.878	32578.59
602.085	32492.81
602.291	32396.79
602.498	32271.37
602.704	32130.25
602.911	31968.75
603.117	31789.57
603.324	31585.19
603.53	31363.37
603.737	31139.03
603.943	30899.3
604.15	30657.14
604.356	30404.61
604.562	30147.23
604.769	29889.3
604.975	29625.97
605.181	29368.95
605.388	29106.95
605.594	28835.88
605.8	28573.39
606.007	28308.75
606.213	28035.88
606.419	27760.12
606.625	27489.83
606.832	27219.03
607.038	26951.37
607.244	26684.68
607.45	26412.79
607.656	26146.3
607.863	25880.01
608.069	25603.86
608.275	25326.65
608.481	25044.97
608.687	24767.05
608.893	24478.86
609.099	24199.86
609.305	23912.25
609.511	23620.39
609.717	23322.08
609.923	23018.21
610.129	22719.72
610.335	22417.9
610.541	22116.77
610.747	21824.03
610.953	21524.52
611.159	21223.59
611.365	20911.05
611.571	20595.26
611.776	20278.57
611.982	19963.3
612.188	19646.52
612.394	19323.06
612.6	18998.45
612.806	18667.19
613.011	18338.08
613.217	18000.74
613.423	17669.74
613.628	17346.25
613.834	17028.74
614.04	16721.23
614.246	16417.43
614.451	16112.79
614.657	15819.26
614.862	15534.72
615.068	15258.72
615.274	14980.55
615.479	14718.14
615.685	14459.15
615.89	14204.01
616.096	13950.01
616.301	13687.26
616.507	13421.72
616.712	13161.45
616.918	12892.17
617.123	12624.86
617.329	12351.52
617.534	12079.19
617.74	11799.01
617.945	11512.21
618.15	11209.1
618.356	10737.61
618.561	9877.28
618.766	8836.08
618.972	7761.15
619.177	6717.01
619.382	5694.72
619.588	4700.61
619.793	4105.24
619.998	3410.97
620.203	2584.08
620.408	1575.76
620.614	588.8
