Data from test1_MAYP1115451__75__10-15-02-829.txt Node

Date: Wed Jun 12 10:15:02 MDT 2024
User: Modes Lab
Spectrometer: MAYP111545
Trigger mode: 0
Integration Time (sec): 8.000000E-3
Scans to average: 5
Electric dark correction enabled: true
Nonlinearity correction enabled: false
Boxcar width: 5
XAxis mode: Wavelengths
Number of Pixels in Spectrum: 2068
>>>>>Begin Spectral Data<<<<<
165.214	163.4
165.449	163.74
165.683	172.45
165.918	181.22
166.152	187.5
166.387	193.18
166.621	125.07
166.856	164.13
167.09	182.67
167.325	205.93
167.559	222.27
167.794	237.47
168.028	244.56
168.263	245.82
168.497	244.67
168.732	245.89
168.966	246.49
169.2	247.85
169.435	248.31
169.669	250.78
169.903	252.96
170.138	255.33
170.372	256.05
170.606	257.31
170.841	259.36
171.075	262.45
171.309	263.02
171.544	263.85
171.778	265.91
172.012	268.22
172.246	269.27
172.48	270.71
172.715	272.05
172.949	274.15
173.183	275.42
173.417	277
173.651	277.22
173.885	280.04
174.119	281.22
174.354	281.73
174.588	283.24
174.822	282.89
175.056	282.85
175.29	282.71
175.524	282.15
175.758	283.2
175.992	283.27
176.226	284.51
176.46	284.58
176.694	286.07
176.928	287.31
177.162	286.84
177.396	288
177.63	289.2
177.864	290.38
178.097	291.24
178.331	291.89
178.565	292.25
178.799	292.09
179.033	292.4
179.267	292.76
179.5	292.95
179.734	293.98
179.968	295.64
180.202	295.73
180.436	297.13
180.669	298.65
180.903	300.44
181.137	301.78
181.371	303.31
181.604	304.16
181.838	305.42
182.072	306.69
182.305	307.95
182.539	308.27
182.772	310.49
183.006	311.58
183.24	312
183.473	315.44
183.707	316.82
183.94	318.2
184.174	318.85
184.408	319.67
184.641	320.87
184.875	321.31
185.108	323.2
185.342	323.76
185.575	324.38
185.808	325.05
186.042	324.16
186.275	324.09
186.509	325.84
186.742	328.02
186.976	329.55
187.209	331.71
187.442	332.96
187.676	334.09
187.909	335.91
188.142	337.15
188.376	339.45
188.609	340.4
188.842	342.76
189.076	344.07
189.309	345.73
189.542	347.05
189.775	346.93
190.009	348.91
190.242	350.04
190.475	351.36
190.708	353.62
190.941	355.53
191.174	357.75
191.408	359.6
191.641	360.67
191.874	361.8
192.107	364.09
192.34	367.16
192.573	368.76
192.806	370.84
193.039	372.42
193.272	374.62
193.505	375.98
193.738	377.33
193.971	379.42
194.204	382.11
194.437	383.64
194.67	385.42
194.903	386.36
195.136	388.27
195.369	390.78
195.602	393.16
195.835	394.27
196.068	395.96
196.301	398.16
196.533	400.64
196.766	402.91
196.999	405.25
197.232	406.31
197.465	407.49
197.698	410.07
197.93	410.89
198.163	412.71
198.396	414.89
198.629	416.84
198.861	418.82
199.094	420.45
199.327	422.07
199.559	424.29
199.792	427.22
200.025	429.49
200.257	432.15
200.49	434.56
200.723	437.8
200.955	439.49
201.188	441
201.42	444.35
201.653	447.56
201.886	449.6
202.118	452.76
202.351	455.27
202.583	459.18
202.816	460.11
203.048	462.91
203.281	463.04
203.513	465.25
203.745	468.87
203.978	470
204.21	471.47
204.443	473.44
204.675	474.82
204.907	477.11
205.14	479.07
205.372	482.07
205.605	484.16
205.837	487.62
206.069	490.36
206.302	492.93
206.534	494.31
206.766	496.35
206.998	499.29
207.231	500.93
207.463	501.87
207.695	503.8
207.927	505.65
208.159	508.11
208.392	509.15
208.624	511
208.856	512.25
209.088	514.33
209.32	516.36
209.552	516.91
209.784	520.69
210.017	522.8
210.249	523.93
210.481	526.62
210.713	528.15
210.945	532.04
211.177	534.2
211.409	535.98
211.641	539.11
211.873	540.65
212.105	543.22
212.337	543.67
212.569	545.95
212.801	549.76
213.033	551.73
213.264	553.38
213.496	554.35
213.728	556.89
213.96	560.02
214.192	561.75
214.424	563.29
214.656	564.93
214.887	568.18
215.119	570.44
215.351	570.78
215.583	572.8
215.815	576.44
216.046	579.07
216.278	579.02
216.51	580
216.741	581.18
216.973	583.64
217.205	585.75
217.436	585.75
217.668	587.55
217.9	589.2
218.131	589.55
218.363	589.98
218.595	590.64
218.826	593.76
219.058	595.95
219.289	597.6
219.521	598.38
219.752	599.8
219.984	599.82
220.215	600.91
220.447	602.69
220.678	603.95
220.91	603.24
221.141	603.09
221.373	604.16
221.604	604.11
221.836	604.89
222.067	606.58
222.298	608.25
222.53	610.73
222.761	611.47
222.993	612.38
223.224	614.6
223.455	617.56
223.686	619.8
223.918	620.69
224.149	622.27
224.38	623.07
224.612	623.58
224.843	623.62
225.074	624.56
225.305	625.89
225.536	627.87
225.768	627.78
225.999	627.44
226.23	627.22
226.461	629.36
226.692	629.82
226.923	630
227.155	633.53
227.386	634.16
227.617	634.44
227.848	634.31
228.079	633.6
228.31	633.67
228.541	636.24
228.772	637.05
229.003	635.25
229.234	634.84
229.465	634.73
229.696	631.22
229.927	631.8
230.158	632.49
230.389	631.75
230.62	632.07
230.85	632.11
231.081	630.93
231.312	631.2
231.543	630.98
231.774	630.98
232.005	632.55
232.236	633.45
232.466	634.04
232.697	633.51
232.928	634.84
233.159	634.15
233.389	634.87
233.62	634.96
233.851	635.73
234.082	635.36
234.312	636.45
234.543	635.64
234.774	635.6
235.004	635.78
235.235	636.58
235.466	636.49
235.696	636.6
235.927	637.15
236.157	637.93
236.388	637.31
236.618	638.75
236.849	637.65
237.08	638.75
237.31	637.91
237.541	636.65
237.771	633.71
238.002	632.07
238.232	631.93
238.463	630.91
238.693	628.95
238.923	628.71
239.154	627.8
239.384	627.64
239.615	626.75
239.845	626.04
240.075	624.76
240.306	626.18
240.536	625.55
240.766	624.45
240.997	624.65
241.227	623.51
241.457	623.71
241.687	623.35
241.918	623.64
242.148	622.62
242.378	622.55
242.608	623.15
242.839	623.2
243.069	623.98
243.299	623.24
243.529	624.62
243.759	625.31
243.989	624.75
244.22	624.75
244.45	623.6
244.68	623.96
244.91	623.56
245.14	622.87
245.37	622.89
245.6	622.78
245.83	623.2
246.06	620.69
246.29	619.67
246.52	619.62
246.75	618.13
246.98	617.56
247.21	615.67
247.44	615.69
247.67	614.53
247.9	613.96
248.13	612.69
248.359	612.64
248.589	610.91
248.819	611.16
249.049	609.67
249.279	608.84
249.509	608.56
249.738	608.51
249.968	607.93
250.198	607.42
250.428	606.51
250.657	606.56
250.887	607.62
251.117	607.31
251.347	605.33
251.576	604.38
251.806	604.36
252.036	602.95
252.265	603.67
252.495	602.2
252.725	603.75
252.954	602.55
253.184	600.85
253.413	598.35
253.643	597.02
253.873	596.91
254.102	597.35
254.332	596.73
254.561	596.35
254.791	594.16
255.02	594.8
255.25	593.49
255.479	593.31
255.708	594.49
255.938	594.31
256.167	595.85
256.397	595.87
256.626	593.73
256.856	593.07
257.085	593.35
257.314	592.16
257.544	590.56
257.773	588.87
258.002	589.18
258.232	586.58
258.461	586.25
258.69	584.05
258.919	582.4
259.149	582.58
259.378	582.05
259.607	580.49
259.836	581
260.065	581.35
260.295	579.27
260.524	577.89
260.753	577.07
260.982	575.69
261.211	574.53
261.44	575
261.669	573.33
261.899	572.56
262.128	572.35
262.357	570.47
262.586	568.31
262.815	568.87
263.044	569.04
263.273	571.8
263.502	570.27
263.731	569.98
263.96	568.82
264.189	567.51
264.418	565.78
264.646	564.8
264.875	563.85
265.104	563.6
265.333	562.73
265.562	559.93
265.791	557.02
266.02	555.67
266.249	555.31
266.477	553.98
266.706	553.76
266.935	553.35
267.164	551.27
267.393	551
267.621	550.67
267.85	549.87
268.079	549.67
268.307	549.95
268.536	550.98
268.765	550.13
268.993	550.15
269.222	550.56
269.451	550.69
269.679	551.16
269.908	550.64
270.137	551.33
270.365	551.58
270.594	551.73
270.822	551.31
271.051	550.98
271.279	550.93
271.508	551.47
271.736	551.53
271.965	551.18
272.193	552.47
272.422	554.05
272.65	553.65
272.879	553.27
273.107	552.65
273.336	551.11
273.564	549.38
273.792	549.11
274.021	546.73
274.249	545.69
274.477	545.35
274.706	542.51
274.934	539.87
275.162	538.27
275.391	537.05
275.619	536.67
275.847	535.95
276.075	536.58
276.304	535.87
276.532	535.93
276.76	534.82
276.988	533.38
277.216	534.51
277.445	534.07
277.673	531.58
277.901	531.33
278.129	530.05
278.357	528.67
278.585	527.36
278.813	525.93
279.041	524.38
279.269	523.76
279.497	524.29
279.725	522.8
279.954	522.38
280.182	523.15
280.41	522.42
280.637	521.53
280.865	521.47
281.093	520.64
281.321	520.44
281.549	520.49
281.777	520.45
282.005	518.69
282.233	519.64
282.461	519.33
282.689	518.8
282.916	518.75
283.144	518.42
283.372	519.53
283.6	518.25
283.828	516.73
284.055	516.98
284.283	516.33
284.511	515.22
284.739	513.64
284.966	512.93
285.194	512.98
285.422	511.93
285.649	511.49
285.877	509.56
286.105	509.85
286.332	510.75
286.56	510.29
286.788	509.87
287.015	510.64
287.243	510.15
287.47	510.22
287.698	508.91
287.925	508.44
288.153	509.15
288.381	508.22
288.608	507.62
288.836	506.13
289.063	504.84
289.29	503.53
289.518	502.6
289.745	501.71
289.973	500.89
290.2	501.24
290.428	499.71
290.655	498.15
290.882	497.4
291.11	496.64
291.337	496.47
291.564	496.89
291.792	496.4
292.019	496.05
292.246	494.95
292.473	494.75
292.701	494.18
292.928	494.56
293.155	494.44
293.382	493.8
293.61	492.62
293.837	492.58
294.064	490.62
294.291	489.75
294.518	488.98
294.745	489.09
294.972	487.91
295.2	486.53
295.427	487
295.654	485.89
295.881	486.07
296.108	486.15
296.335	486.02
296.562	486.31
296.789	486.15
297.016	485.4
297.243	485.05
297.47	484.33
297.697	483.64
297.924	482.64
298.151	481.89
298.378	480.95
298.604	481.44
298.831	480.13
299.058	479.91
299.285	479.27
299.512	478.15
299.739	477.82
299.966	477.51
300.192	477.22
300.419	475.78
300.646	475.75
300.873	474.55
301.099	473.49
301.326	472.84
301.553	471.6
301.78	472.35
302.006	472.38
302.233	472.25
302.46	471.36
302.686	471.16
302.913	471.15
303.14	471.05
303.366	471.8
303.593	471.2
303.819	471.05
304.046	471.6
304.272	470.53
304.499	471.35
304.725	470.38
304.952	469.75
305.179	469.36
305.405	468.93
305.631	468.44
305.858	468.49
306.084	466.96
306.311	466.91
306.537	466.29
306.764	466
306.99	464.82
307.216	464.71
307.443	464.51
307.669	464.05
307.895	463.04
308.122	462.58
308.348	460.85
308.574	461.8
308.801	461.16
309.027	461.29
309.253	460.6
309.479	461.29
309.706	460.62
309.932	460.44
310.158	460.29
310.384	461.76
310.61	461.47
310.837	462.45
311.063	461.45
311.289	461.93
311.515	460.71
311.741	460
311.967	459.45
312.193	460.02
312.419	460.38
312.645	459.91
312.871	460.16
313.097	459.36
313.323	459.09
313.549	460.44
313.775	460.49
314.001	461.18
314.227	462.31
314.453	463.22
314.679	462.33
314.905	463.82
315.131	465.15
315.357	464.78
315.583	466.71
315.809	466.24
316.034	465.89
316.26	466.29
316.486	467.47
316.712	467.53
316.938	465.91
317.163	467.6
317.389	467.13
317.615	467.33
317.841	467.38
318.066	467.42
318.292	469.35
318.518	469.07
318.743	469.56
318.969	469.75
319.195	471.53
319.42	472.71
319.646	472.89
319.872	474.11
320.097	474.13
320.323	474.67
320.548	476.11
320.774	478.04
320.999	479.75
321.225	479.78
321.45	480.65
321.676	480.31
321.901	482
322.127	483.44
322.352	485.04
322.578	487.35
322.803	488.95
323.029	489.36
323.254	488.96
323.479	491.76
323.705	494.55
323.93	495.55
324.155	498.75
324.381	501.35
324.606	502.84
324.831	504.33
325.057	505.87
325.282	509.25
325.507	511.44
325.732	514.22
325.958	516.05
326.183	517.73
326.408	521.29
326.633	524.31
326.858	526.18
327.084	528.11
327.309	530.33
327.534	533.64
327.759	534.53
327.984	537.31
328.209	539.93
328.434	542.22
328.659	545.47
328.884	548.47
329.109	550.04
329.334	552.82
329.559	555.85
329.784	559
330.009	561.67
330.234	565.47
330.459	569.96
330.684	573.96
330.909	579.04
331.134	583.04
331.359	587.31
331.584	591.44
331.809	596.2
332.034	601.2
332.259	605.49
332.483	610.55
332.708	615.25
332.933	618.87
333.158	622.65
333.383	625.67
333.607	630.96
333.832	635.85
334.057	642.36
334.282	645.36
334.506	650.05
334.731	655.42
334.956	661.67
335.18	668.82
335.405	675.04
335.63	681.67
335.854	687.55
336.079	692.45
336.303	696.76
336.528	701.71
336.753	709.22
336.977	715.65
337.202	721.45
337.426	726.8
337.651	731.91
337.875	737.27
338.1	744.09
338.324	752.27
338.549	759.35
338.773	767.98
338.997	773.76
339.222	782.05
339.446	791
339.671	799.58
339.895	806.27
340.119	813.04
340.344	821.95
340.568	830.76
340.792	838.05
341.017	847.09
341.241	853.8
341.465	862.56
341.689	868.96
341.914	875.47
342.138	883.42
342.362	891.96
342.586	901.15
342.811	906.85
343.035	913.53
343.259	921.2
343.483	929.65
343.707	939.24
343.931	948.96
344.155	958.8
344.38	968.98
344.604	977.85
344.828	986.44
345.052	995.67
345.276	1008
345.5	1018.53
345.724	1027.78
345.948	1036.75
346.172	1045.62
346.396	1054.6
346.62	1065.11
346.844	1076.07
347.068	1085.16
347.292	1097.18
347.515	1107.8
347.739	1120.02
347.963	1129.18
348.187	1140.91
348.411	1150.82
348.635	1161.91
348.859	1172
349.082	1181.45
349.306	1191.44
349.53	1202.84
349.754	1212.31
349.977	1220.84
350.201	1229.49
350.425	1242
350.649	1252.45
350.872	1264.18
351.096	1276.04
351.32	1287.78
351.543	1300.49
351.767	1311.67
351.99	1322.76
352.214	1335.04
352.438	1347.84
352.661	1361.11
352.885	1372.67
353.108	1384.67
353.332	1396.18
353.555	1407.75
353.779	1418.84
354.002	1429.6
354.226	1441.96
354.449	1454.76
354.673	1466.16
354.896	1479.22
355.12	1489.29
355.343	1499.55
355.566	1511.16
355.79	1523.15
356.013	1535.33
356.237	1548.75
356.46	1560.25
356.683	1571.31
356.907	1584.2
357.13	1597.02
357.353	1609.2
357.576	1621.04
357.8	1633.51
358.023	1646.2
358.246	1660.11
358.469	1672.67
358.693	1685.96
358.916	1701.44
359.139	1714
359.362	1726.31
359.585	1742.16
359.808	1755.31
360.031	1767.4
360.255	1781.25
360.478	1796.29
360.701	1809.49
360.924	1823.02
361.147	1836.51
361.37	1848.8
361.593	1864.44
361.816	1879.45
362.039	1891.09
362.262	1905.04
362.485	1920.82
362.708	1934.24
362.931	1947.56
363.154	1958.2
363.377	1970.62
363.599	1984.31
363.822	1997.71
364.045	2010.98
364.268	2024.29
364.491	2037.64
364.714	2051.55
364.936	2063.98
365.159	2079.96
365.382	2095.31
365.605	2112.51
365.828	2131.85
366.05	2144.82
366.273	2160.25
366.496	2174.38
366.718	2188.33
366.941	2203.07
367.164	2221
367.386	2238.53
367.609	2253.71
367.832	2268.84
368.054	2287.31
368.277	2300.25
368.5	2317.02
368.722	2334.2
368.945	2349.73
369.167	2367.07
369.39	2382.24
369.612	2397.09
369.835	2413.93
370.057	2430.8
370.28	2447.24
370.502	2462.16
370.725	2479.84
370.947	2497.55
371.169	2513.56
371.392	2531.24
371.614	2546.64
371.837	2567.78
372.059	2581.98
372.281	2599.44
372.504	2619.2
372.726	2635.15
372.948	2652.78
373.171	2667.47
373.393	2687.75
373.615	2705.73
373.837	2725.42
374.06	2744.62
374.282	2762.22
374.504	2783.51
374.726	2801.29
374.948	2817.6
375.17	2838.51
375.393	2858.44
375.615	2880.07
375.837	2898.38
376.059	2918.07
376.281	2935.95
376.503	2956.84
376.725	2977.07
376.947	2994.98
377.169	3015.96
377.391	3035.4
377.613	3056.18
377.835	3074.6
378.057	3094.45
378.279	3116.89
378.501	3138.44
378.723	3160.6
378.945	3182.75
379.167	3205.02
379.389	3226.09
379.611	3250.22
379.833	3273.31
380.054	3294.51
380.276	3317.56
380.498	3340.29
380.72	3361.71
380.942	3385.16
381.163	3412.2
381.385	3436.45
381.607	3460.45
381.829	3490.29
382.05	3513.02
382.272	3538.42
382.494	3565.24
382.716	3594.13
382.937	3622.8
383.159	3651.27
383.381	3676.96
383.602	3701.75
383.824	3730.11
384.045	3755.36
384.267	3780.8
384.488	3808.02
384.71	3836.95
384.932	3863.98
385.153	3889.33
385.375	3918.8
385.596	3943.16
385.818	3970.09
386.039	3999
386.261	4027.04
386.482	4057.51
386.703	4085.78
386.925	4112.53
387.146	4139.55
387.368	4171.82
387.589	4199.64
387.81	4223.67
388.032	4254.24
388.253	4285.45
388.474	4316.47
388.696	4343.49
388.917	4370.65
389.138	4399.87
389.359	4430.93
389.581	4460.44
389.802	4487.22
390.023	4517.38
390.244	4549.98
390.465	4576.4
390.687	4602.91
390.908	4628.36
391.129	4657.04
391.35	4690.71
391.571	4719.85
391.792	4752.05
392.013	4784.02
392.234	4815.89
392.455	4848.33
392.677	4878.09
392.898	4912.98
393.119	4948.51
393.34	4980.84
393.561	5017.93
393.782	5046.15
394.003	5081.82
394.223	5112.56
394.444	5145.69
394.665	5178.18
394.886	5213.53
395.107	5249.65
395.328	5285.91
395.549	5323.47
395.77	5360.89
395.99	5393.55
396.211	5427.18
396.432	5461.96
396.653	5498.78
396.874	5532.45
397.094	5566.71
397.315	5600.85
397.536	5632.85
397.757	5664.65
397.977	5695.93
398.198	5728.56
398.419	5762.89
398.639	5797.51
398.86	5830.42
399.081	5863.58
399.301	5898.2
399.522	5933.71
399.742	5965.96
399.963	6004.36
400.184	6040.89
400.404	6077.18
400.625	6112.89
400.845	6147.09
401.066	6184.07
401.286	6217.93
401.507	6253.47
401.727	6291.31
401.948	6326.65
402.168	6364.45
402.388	6400.65
402.609	6436.38
402.829	6469.27
403.05	6504.15
403.27	6539.84
403.49	6576.2
403.711	6614.18
403.931	6646.07
404.151	6678.62
404.372	6714.55
404.592	6747.13
404.812	6775.55
405.032	6813.18
405.253	6852.27
405.473	6885.87
405.693	6922.15
405.913	6955.64
406.133	6989.93
406.353	7031.93
406.574	7070.6
406.794	7107.69
407.014	7146.56
407.234	7185.67
407.454	7217.98
407.674	7253.4
407.894	7289.51
408.114	7327.36
408.334	7367.09
408.554	7408.4
408.774	7442.27
408.994	7477.84
409.214	7512.78
409.434	7550.22
409.654	7584.71
409.874	7623.78
410.094	7659.18
410.314	7697.76
410.534	7737.25
410.754	7778.15
410.974	7813.38
411.193	7851.96
411.413	7887.51
411.633	7927.02
411.853	7966
412.073	8009.87
412.292	8049.65
412.512	8087.85
412.732	8128.6
412.952	8164.6
413.171	8201.69
413.391	8240.2
413.611	8282.76
413.831	8330.91
414.05	8370.24
414.27	8412.69
414.489	8457.96
414.709	8503.02
414.929	8551.36
415.148	8595.65
415.368	8639.16
415.587	8688.35
415.807	8734.24
416.026	8775.49
416.246	8815.53
416.465	8864.24
416.685	8905.53
416.904	8945.15
417.124	8986.82
417.343	9026.35
417.563	9069.05
417.782	9112.2
418.002	9155.36
418.221	9200.73
418.44	9246.8
418.66	9289.82
418.879	9335.02
419.098	9376.85
419.318	9422.27
419.537	9467.31
419.756	9513.96
419.976	9555.53
420.195	9602.11
420.414	9639.82
420.633	9682.51
420.853	9726.95
421.072	9771.56
421.291	9811.93
421.51	9860.51
421.729	9904.73
421.948	9943.47
422.168	9988.29
422.387	10035.05
422.606	10078.29
422.825	10122.71
423.044	10164.27
423.263	10202.89
423.482	10244.6
423.701	10285.93
423.92	10329.64
424.139	10372.18
424.358	10415.42
424.577	10460.05
424.796	10506.07
425.015	10548.82
425.234	10591.42
425.453	10642.82
425.672	10695.75
425.891	10743.51
426.11	10794.2
426.328	10837.18
426.547	10881.95
426.766	10932.44
426.985	10973.78
427.204	11022.56
427.422	11072.45
427.641	11122.51
427.86	11168.16
428.079	11212.49
428.297	11258.53
428.516	11306.84
428.735	11354.76
428.954	11408.44
429.172	11455.38
429.391	11503.02
429.61	11551.35
429.828	11600.45
430.047	11652.78
430.265	11699.45
430.484	11747.98
430.703	11793.05
430.921	11838.29
431.14	11890.87
431.358	11931.16
431.577	11978
431.795	12029.22
432.014	12072.56
432.232	12119.69
432.451	12160.67
432.669	12211.38
432.887	12259.58
433.106	12313.93
433.324	12355.31
433.543	12399.78
433.761	12449.38
433.979	12496.33
434.198	12543.05
434.416	12588.67
434.634	12634.35
434.853	12679.8
435.071	12722.89
435.289	12770.29
435.507	12813
435.726	12856.71
435.944	12897.85
436.162	12942.75
436.38	12989.11
436.598	13035.13
436.817	13084.18
437.035	13129.07
437.253	13181.71
437.471	13227.31
437.689	13272.09
437.907	13323.65
438.125	13380.07
438.343	13426.49
438.561	13480.42
438.78	13526.69
438.998	13579.38
439.216	13629.85
439.434	13676.42
439.652	13720.75
439.869	13769.45
440.087	13818.75
440.305	13858.82
440.523	13905.24
440.741	13960.07
440.959	14007.02
441.177	14060.55
441.395	14102.35
441.613	14152.67
441.831	14206.31
442.048	14252.38
442.266	14300.85
442.484	14353.75
442.702	14409.18
442.919	14458.93
443.137	14504.29
443.355	14552.55
443.573	14601.16
443.79	14650.84
444.008	14695.93
444.226	14742.87
444.443	14792.78
444.661	14841.29
444.879	14882.71
445.096	14931.05
445.314	14978.64
445.532	15033.84
445.749	15079.24
445.967	15126.58
446.184	15172.76
446.402	15219.91
446.619	15265.16
446.837	15311.18
447.054	15363
447.272	15413.09
447.489	15456.02
447.707	15502.24
447.924	15548
448.141	15597.84
448.359	15644.47
448.576	15698.98
448.794	15748.02
449.011	15796.98
449.228	15849.22
449.446	15898.96
449.663	15951.89
449.88	16001.78
450.098	16055.16
450.315	16101.84
450.532	16151.16
450.749	16201.56
450.967	16249.67
451.184	16300.8
451.401	16350.2
451.618	16397.55
451.835	16436.29
452.052	16481.91
452.27	16531.67
452.487	16571.67
452.704	16622.56
452.921	16664
453.138	16707.16
453.355	16747.8
453.572	16790.27
453.789	16838.27
454.006	16887.58
454.223	16936.25
454.44	16988.05
454.657	17037.53
454.874	17089.09
455.091	17132.76
455.308	17181.75
455.525	17232.51
455.742	17288.8
455.959	17339.13
456.176	17386.89
456.393	17438.11
456.609	17486.65
456.826	17531.47
457.043	17579.18
457.26	17624.56
457.477	17669.13
457.693	17719.62
457.91	17762.18
458.127	17808.4
458.344	17852.6
458.56	17894.6
458.777	17934.04
458.994	17975.33
459.21	18008.38
459.427	18041.82
459.644	18084.42
459.86	18123.62
460.077	18164.45
460.294	18198.49
460.51	18233.04
460.727	18263.27
460.943	18292.87
461.16	18326.33
461.376	18360.65
461.593	18406.04
461.809	18446.27
462.026	18477.6
462.242	18516.38
462.459	18553.49
462.675	18598.35
462.892	18637.11
463.108	18682.82
463.324	18732.02
463.541	18775.84
463.757	18821.73
463.974	18860.2
464.19	18908.64
464.406	18954.38
464.623	19003.93
464.839	19047.76
465.055	19095.49
465.271	19140.98
465.488	19189.24
465.704	19238.45
465.92	19283.36
466.136	19330.27
466.353	19387.35
466.569	19433.15
466.785	19492.15
467.001	19542.8
467.217	19599.56
467.433	19659.49
467.649	19717.31
467.865	19779.24
468.082	19834.73
468.298	19900.65
468.514	19965.02
468.73	20020.84
468.946	20088.69
469.162	20148.98
469.378	20209.84
469.594	20273.89
469.81	20328.42
470.026	20393.89
470.242	20455.24
470.457	20521.13
470.673	20593.44
470.889	20660.38
471.105	20724.42
471.321	20788.15
471.537	20857.75
471.753	20931.4
471.968	20998.73
472.184	21069.36
472.4	21134.33
472.616	21209.8
472.832	21284.6
473.047	21343.82
473.263	21411.76
473.479	21489.15
473.694	21568.09
473.91	21639.49
474.126	21713.8
474.341	21787.18
474.557	21865.87
474.773	21938.75
474.988	22002.78
475.204	22073.58
475.42	22150.58
475.635	22232.45
475.851	22308.76
476.066	22379.22
476.282	22444.64
476.497	22507.95
476.713	22572.75
476.928	22637.25
477.144	22709.31
477.359	22775.64
477.575	22841.98
477.79	22909.6
478.005	22959.85
478.221	23013.73
478.436	23070.53
478.651	23138.13
478.867	23203.47
479.082	23268.76
479.297	23335.13
479.513	23391.36
479.728	23446.47
479.943	23492.47
480.159	23539.56
480.374	23600.11
480.589	23648.22
480.804	23700.73
481.019	23753.22
481.235	23795.87
481.45	23842.31
481.665	23887.53
481.88	23940.55
482.095	23998.35
482.31	24048.67
482.525	24102.09
482.741	24145.89
482.956	24200.98
483.171	24250.02
483.386	24293.71
483.601	24341.45
483.816	24388.33
484.031	24433.64
484.246	24470.15
484.461	24507.45
484.676	24559
484.891	24601.47
485.105	24652.29
485.32	24696.96
485.535	24744.6
485.75	24790.35
485.965	24835.82
486.18	24876.35
486.395	24914.31
486.609	24965.89
486.824	25013.2
487.039	25053.13
487.254	25096.67
487.469	25134.29
487.683	25174.58
487.898	25211.73
488.113	25253.62
488.327	25299.31
488.542	25332.47
488.757	25372.24
488.972	25404.95
489.186	25436.05
489.401	25468.8
489.615	25511.58
489.83	25551.65
490.045	25579.07
490.259	25608.62
490.474	25643.42
490.688	25671.87
490.903	25711.29
491.117	25743.07
491.332	25779.95
491.546	25819.58
491.761	25860.95
491.975	25885.55
492.19	25912.35
492.404	25942.51
492.618	25968.76
492.833	25989.96
493.047	26024.02
493.262	26051.82
493.476	26086.58
493.69	26108.89
493.905	26129.98
494.119	26154.91
494.333	26184.95
494.547	26211.04
494.762	26250.87
494.976	26282
495.19	26309.11
495.404	26335.6
495.619	26368.45
495.833	26388.51
496.047	26408.95
496.261	26432.91
496.475	26445.24
496.689	26452.04
496.903	26465.05
497.117	26459.75
497.332	26459.04
497.546	26455.98
497.76	26434.51
497.974	26417.84
498.188	26402.75
498.402	26399.27
498.616	26388
498.83	26372.73
499.044	26367.82
499.258	26363.09
499.472	26369.09
499.685	26381.49
499.899	26394.49
500.113	26414.11
500.327	26429.18
500.541	26448.4
500.755	26460.73
500.969	26476.51
501.183	26500.67
501.396	26515.51
501.61	26538.27
501.824	26557.22
502.038	26566.84
502.251	26575.69
502.465	26597.58
502.679	26618.33
502.892	26630.98
503.106	26645.29
503.32	26671.6
503.533	26695.27
503.747	26717.6
503.961	26729.35
504.174	26755.98
504.388	26784.44
504.602	26823.04
504.815	26851.47
505.029	26884.96
505.242	26933.87
505.456	26986.27
505.669	27026.35
505.883	27076.6
506.096	27131.15
506.31	27190.53
506.523	27242.75
506.736	27298.8
506.95	27353.33
507.163	27409.87
507.377	27461.96
507.59	27513.22
507.803	27566.4
508.017	27628.18
508.23	27690.45
508.443	27761.35
508.657	27828.4
508.87	27891.91
509.083	27957.49
509.296	28028.25
509.51	28102.82
509.723	28184.33
509.936	28268.09
510.149	28351.15
510.363	28434.13
510.576	28522.4
510.789	28607.56
511.002	28702.44
511.215	28806.4
511.428	28909.89
511.641	29011.35
511.854	29115.62
512.067	29216.78
512.28	29330.82
512.493	29430.73
512.707	29529.31
512.92	29624.45
513.132	29730.56
513.345	29831.56
513.558	29932.22
513.771	30039.62
513.984	30141.55
514.197	30249.31
514.41	30361.04
514.623	30455.6
514.836	30569.73
515.049	30681.16
515.262	30800.02
515.474	30907.22
515.687	31016.42
515.9	31115.58
516.113	31209.27
516.325	31309.04
516.538	31403.07
516.751	31496.42
516.964	31585.96
517.176	31675.69
517.389	31761.05
517.602	31847.65
517.814	31923.42
518.027	32004.6
518.24	32080.84
518.452	32168.11
518.665	32256.51
518.877	32329.07
519.09	32408.8
519.303	32489.45
519.515	32559.11
519.728	32637.36
519.94	32695.27
520.153	32765.49
520.365	32825.53
520.578	32896.24
520.79	32966.91
521.002	33024.45
521.215	33083.35
521.427	33138.89
521.64	33198.45
521.852	33251.95
522.064	33293.84
522.277	33353.87
522.489	33411.64
522.701	33464.93
522.914	33516.84
523.126	33558.67
523.338	33604.53
523.551	33660.75
523.763	33707.22
523.975	33753.42
524.187	33799.27
524.399	33857.11
524.612	33907.82
524.824	33948.51
525.036	33994.76
525.248	34040.87
525.46	34081.18
525.672	34130.18
525.884	34169.38
526.096	34208.69
526.308	34245.98
526.521	34277.11
526.733	34311.58
526.945	34350.95
527.157	34386.91
527.369	34429.96
527.581	34460.25
527.793	34484.24
528.004	34499.76
528.216	34526.36
528.428	34555.87
528.64	34583.95
528.852	34619.42
529.064	34646.15
529.276	34658.96
529.488	34682.2
529.699	34697.07
529.911	34718.16
530.123	34758.04
530.335	34792.67
530.547	34829.58
530.758	34858.87
530.97	34892.33
531.182	34923.62
531.393	34960.76
531.605	34999.65
531.817	35034.47
532.029	35070.98
532.24	35105.91
532.452	35136.8
532.663	35157.33
532.875	35172.38
533.087	35193.45
533.298	35209.15
533.51	35228.67
533.721	35242.65
533.933	35256.42
534.144	35277.95
534.356	35283.62
534.567	35300.36
534.779	35311.82
534.99	35345.71
535.202	35375.75
535.413	35406.93
535.624	35423.96
535.836	35452.53
536.047	35475.96
536.259	35499.33
536.47	35506.4
536.681	35529.85
536.893	35548.36
537.104	35567.93
537.315	35570.29
537.526	35581.87
537.738	35595.42
537.949	35617.84
538.16	35625.62
538.371	35634.96
538.582	35650.25
538.794	35670.89
539.005	35694.24
539.216	35709.84
539.427	35729.22
539.638	35761.24
539.849	35782.02
540.06	35790.24
540.272	35805.82
540.483	35826.98
540.694	35851.05
540.905	35863.82
541.116	35882.11
541.327	35898.8
541.538	35916.33
541.749	35931.25
541.96	35934.49
542.17	35945.71
542.381	35962.67
542.592	35976.96
542.803	35987.4
543.014	35984.2
543.225	35989.56
543.436	35996.6
543.647	35997.45
543.857	36002.25
544.068	36002.96
544.279	36015.67
544.49	36017.22
544.701	36024.15
544.911	36037.87
545.122	36053.4
545.333	36074.33
545.543	36094.47
545.754	36103.69
545.965	36115.16
546.175	36127.4
546.386	36145.16
546.597	36156.93
546.807	36182.98
547.018	36191.56
547.229	36196.98
547.439	36199.16
547.65	36204.95
547.86	36204.02
548.071	36212.27
548.281	36217.76
548.492	36234.4
548.702	36227.71
548.913	36234.56
549.123	36232.55
549.333	36235.85
549.544	36235.35
549.754	36242.33
549.965	36247.93
550.175	36273.38
550.385	36289.16
550.596	36306.82
550.806	36307.95
551.016	36339.25
551.227	36343.6
551.437	36359.16
551.647	36375.47
551.857	36392.05
552.068	36408.2
552.278	36419.24
552.488	36414.47
552.698	36420.76
552.908	36432.8
553.119	36445.05
553.329	36440.09
553.539	36444.85
553.749	36431.58
553.959	36429.89
554.169	36427.33
554.379	36423.69
554.589	36425.71
554.799	36431.18
555.009	36435.31
555.219	36436.8
555.429	36428.35
555.639	36433.75
555.849	36439.2
556.059	36448.93
556.269	36460.51
556.479	36466.49
556.689	36467.16
556.899	36475.09
557.109	36481.24
557.319	36470.89
557.528	36469
557.738	36474.87
557.948	36463.51
558.158	36456.49
558.368	36450.09
558.577	36439.11
558.787	36442.04
558.997	36442.15
559.207	36429.53
559.416	36414.45
559.626	36413.95
559.836	36388.47
560.045	36380.76
560.255	36380.53
560.465	36385.67
560.674	36386.2
560.884	36388.65
561.093	36374.87
561.303	36376.24
561.512	36382
561.722	36376.04
561.932	36378.22
562.141	36388.69
562.351	36390.25
562.56	36400.45
562.769	36395.62
562.979	36396.76
563.188	36396.84
563.398	36402.33
563.607	36396.69
563.817	36399.31
564.026	36401.2
564.235	36394.29
564.445	36394.47
564.654	36391.76
564.863	36383
565.073	36380.78
565.282	36381.49
565.491	36369.4
565.7	36359.18
565.91	36356.91
566.119	36336.42
566.328	36334.24
566.537	36328.36
566.746	36322.45
566.956	36313.22
567.165	36295.16
567.374	36288.13
567.583	36269.55
567.792	36264.89
568.001	36250.56
568.21	36223.82
568.419	36210.76
568.628	36189.33
568.837	36158.53
569.046	36132.15
569.255	36108.04
569.464	36085.96
569.673	36054.22
569.882	36030.4
570.091	36010.6
570.3	35997.11
570.509	35982.98
570.718	35966.4
570.927	35954.62
571.135	35956.04
571.344	35948
571.553	35940.93
571.762	35942.38
571.971	35943.62
572.18	35950.96
572.388	35944.51
572.597	35928.38
572.806	35919.78
573.014	35909.44
573.223	35897.42
573.432	35873.53
573.641	35849.89
573.849	35830.36
574.058	35793.98
574.266	35767.8
574.475	35741.56
574.684	35715.29
574.892	35700.38
575.101	35694.64
575.309	35675
575.518	35656.62
575.726	35650.31
575.935	35640.2
576.143	35624.4
576.352	35619.36
576.56	35612.33
576.769	35594.64
576.977	35582.87
577.186	35572.87
577.394	35537.87
577.602	35526.42
577.811	35514.58
578.019	35501.6
578.228	35496.33
578.436	35481.42
578.644	35459.56
578.852	35441.36
579.061	35419.29
579.269	35398.35
579.477	35379.02
579.685	35370.04
579.894	35353.13
580.102	35336.44
580.31	35314.02
580.518	35296.51
580.726	35281.05
580.935	35266.13
581.143	35234.87
581.351	35214.4
581.559	35189.2
581.767	35163.35
581.975	35130.11
582.183	35103.22
582.391	35073.25
582.599	35048.45
582.807	35015.07
583.015	34999.47
583.223	34988.8
583.431	34978.93
583.639	34965.47
583.847	34954.36
584.055	34940.22
584.263	34928.93
584.471	34913.56
584.678	34895.89
584.886	34883.18
585.094	34868.55
585.302	34835.84
585.51	34811.31
585.718	34780.4
585.925	34753.27
586.133	34733.98
586.341	34704.22
586.549	34681.31
586.756	34659.09
586.964	34644.25
587.172	34619.96
587.379	34585.56
587.587	34562.8
587.795	34538.42
588.002	34519.49
588.21	34506.89
588.417	34478.07
588.625	34458.13
588.833	34441.55
589.04	34419.04
589.248	34390.91
589.455	34370.98
589.663	34357.36
589.87	34339.09
590.078	34321
590.285	34309.55
590.492	34277.95
590.7	34253.84
590.907	34234.55
591.115	34206.55
591.322	34181.51
591.529	34156.75
591.737	34131.87
591.944	34117.05
592.151	34098.13
592.359	34073.75
592.566	34043.89
592.773	34020.11
592.981	33996.02
593.188	33970.89
593.395	33942.91
593.602	33918.11
593.809	33890.4
594.017	33865.71
594.224	33834.55
594.431	33801.49
594.638	33762.96
594.845	33731.38
595.052	33700.71
595.259	33673.49
595.466	33643.91
595.673	33635.47
595.88	33622.87
596.088	33609.42
596.295	33573.09
596.502	33555.98
596.709	33533.93
596.915	33520.55
597.122	33501.85
597.329	33483.47
597.536	33455.64
597.743	33433.64
597.95	33394.76
598.157	33358.16
598.364	33316.31
598.571	33282.13
598.777	33230.35
598.984	33185.04
599.191	33129.93
599.398	33080.73
599.605	33034.33
599.811	32989.49
600.018	32940.67
600.225	32893.95
600.431	32834.07
600.638	32792.96
600.845	32769.31
601.052	32731.35
601.258	32697.16
601.465	32660.25
601.671	32604.25
601.878	32544.4
602.085	32459.85
602.291	32367.47
602.498	32247.51
602.704	32123.22
602.911	31960.22
603.117	31780.67
603.324	31579.05
603.53	31365.05
603.737	31130.09
603.943	30896.49
604.15	30646.45
604.356	30403.69
604.562	30143.98
604.769	29886.29
604.975	29627.62
605.181	29363.56
605.388	29090.64
605.594	28835.33
605.8	28568.02
606.007	28305.27
606.213	28029.96
606.419	27757.15
606.625	27483.51
606.832	27214.2
607.038	26950.8
607.244	26677.02
607.45	26415.2
607.656	26144.47
607.863	25865.82
608.069	25586.25
608.275	25307.09
608.481	25028.91
608.687	24749.98
608.893	24472.02
609.099	24187.15
609.305	23899.85
609.511	23609.4
609.717	23321.95
609.923	23025.15
610.129	22734.82
610.335	22440.53
610.541	22148.84
610.747	21854.15
610.953	21545.25
611.159	21232.84
611.365	20922.73
611.571	20604.84
611.776	20285.89
611.982	19963.31
612.188	19646.96
612.394	19317.31
612.6	18990.33
612.806	18655.16
613.011	18328.58
613.217	18009.11
613.423	17687.04
613.628	17362.45
613.834	17045.29
614.04	16739.75
614.246	16427.27
614.451	16124.27
614.657	15830.91
614.862	15545.49
615.068	15272.24
615.274	14992.38
615.479	14718.8
615.685	14450.76
615.89	14188.69
616.096	13929.09
616.301	13664.98
616.507	13404.05
616.712	13141.84
616.918	12875.73
617.123	12610.24
617.329	12335.25
617.534	12062.05
617.74	11784.8
617.945	11509.24
618.15	11212.45
618.356	10746.73
618.561	9887.47
618.766	8848.6
618.972	7774.09
619.177	6729.45
619.382	5704.95
619.588	4710.51
619.793	4117.04
619.998	3423.33
620.203	2586.18
620.408	1577.37
620.614	584.43
