Data from test1_MAYP1115451__30__10-14-48-152.txt Node

Date: Wed Jun 12 10:14:48 MDT 2024
User: Modes Lab
Spectrometer: MAYP111545
Trigger mode: 0
Integration Time (sec): 8.000000E-3
Scans to average: 5
Electric dark correction enabled: true
Nonlinearity correction enabled: false
Boxcar width: 5
XAxis mode: Wavelengths
Number of Pixels in Spectrum: 2068
>>>>>Begin Spectral Data<<<<<
165.214	163.67
165.449	163.51
165.683	172.65
165.918	181.6
166.152	188.08
166.387	193.93
166.621	126.09
166.856	164.22
167.09	182.95
167.325	206.24
167.559	223.13
167.794	237.31
168.028	244.98
168.263	247.04
168.497	247.11
168.732	248.07
168.966	248.2
169.2	250.45
169.435	252.02
169.669	253.64
169.903	255.33
170.138	256.47
170.372	257.93
170.606	259.69
170.841	260.42
171.075	261.91
171.309	263.25
171.544	264.02
171.778	264.8
172.012	266.58
172.246	268
172.48	270.16
172.715	271.98
172.949	274.09
173.183	275.6
173.417	277.75
173.651	279.62
173.885	280.76
174.119	283.31
174.354	284.09
174.588	284.4
174.822	285.13
175.056	285.65
175.29	285.75
175.524	285.09
175.758	284.93
175.992	284.53
176.226	283.89
176.46	284.47
176.694	284.56
176.928	285.89
177.162	287.75
177.396	287.64
177.63	288.33
177.864	289.91
178.097	291.36
178.331	292.16
178.565	292.31
178.799	293.4
179.033	293.91
179.267	294.85
179.5	295.29
179.734	295.8
179.968	297.78
180.202	298.09
180.436	297.6
180.669	298.89
180.903	301.53
181.137	302.95
181.371	304.22
181.604	305
181.838	305.84
182.072	306.49
182.305	308.05
182.539	307.67
182.772	308.64
183.006	310.31
183.24	310.75
183.473	312.65
183.707	314.04
183.94	315.05
184.174	317.78
184.408	318.76
184.641	319.31
184.875	318.76
185.108	321.15
185.342	322.29
185.575	323.47
185.808	324.55
186.042	323.58
186.275	324.2
186.509	324.82
186.742	324.91
186.976	326.25
187.209	327.89
187.442	330.02
187.676	331.31
187.909	333.82
188.142	335.53
188.376	337.82
188.609	339.62
188.842	341.36
189.076	343.53
189.309	345.2
189.542	347.45
189.775	348.64
190.009	350.55
190.242	352.89
190.475	353.87
190.708	354.98
190.941	355.53
191.174	357.55
191.408	359.85
191.641	360.84
191.874	362.73
192.107	363.75
192.34	366.24
192.573	367.96
192.806	369.44
193.039	370.45
193.272	373.44
193.505	375.33
193.738	376.78
193.971	378.24
194.204	381.53
194.437	382.42
194.67	383.71
194.903	385.67
195.136	387.44
195.369	389.78
195.602	391.87
195.835	393.31
196.068	395.75
196.301	396.49
196.533	398.02
196.766	398.64
196.999	401.2
197.232	404.69
197.465	406.65
197.698	407.91
197.93	410.13
198.163	412.09
198.396	414.2
198.629	416.05
198.861	420.29
199.094	423.22
199.327	425.76
199.559	428.09
199.792	429.33
200.025	431.22
200.257	434.11
200.49	434.8
200.723	437.96
200.955	440.33
201.188	442.71
201.42	445.07
201.653	446.95
201.886	449.67
202.118	452.24
202.351	453.82
202.583	457.2
202.816	460.16
203.048	463.55
203.281	465.11
203.513	466.8
203.745	469.55
203.978	470.44
204.21	472.93
204.443	475.71
204.675	477.85
204.907	481.18
205.14	482.25
205.372	484.04
205.605	485.89
205.837	487.8
206.069	491.07
206.302	493.44
206.534	496.04
206.766	498.29
206.998	500.2
207.231	501.84
207.463	503.35
207.695	507.27
207.927	509.22
208.159	511.15
208.392	513.18
208.624	515.35
208.856	517.36
209.088	520.56
209.32	523.25
209.552	525.04
209.784	527.4
210.017	530.96
210.249	531.95
210.481	534.13
210.713	536.95
210.945	540
211.177	541.22
211.409	543.42
211.641	544
211.873	544.27
212.105	545.42
212.337	547.58
212.569	548.47
212.801	550.62
213.033	553.31
213.264	554.62
213.496	556.22
213.728	558.16
213.96	559.16
214.192	561.24
214.424	564.05
214.656	566.31
214.887	567.71
215.119	570.35
215.351	571.44
215.583	572.18
215.815	573.65
216.046	575.22
216.278	576.11
216.51	578.93
216.741	580.09
216.973	582.33
217.205	584.13
217.436	586.18
217.668	587.67
217.9	590.42
218.131	591.69
218.363	593.67
218.595	595.96
218.826	597.67
219.058	597.93
219.289	599.85
219.521	600.53
219.752	602.33
219.984	603.73
220.215	604.75
220.447	604.85
220.678	605.87
220.91	606.45
221.141	606.89
221.373	610
221.604	610.89
221.836	611.58
222.067	612.27
222.298	614.15
222.53	615.69
222.761	615.69
222.993	617.47
223.224	618.89
223.455	621.47
223.686	621.27
223.918	621.8
224.149	623.2
224.38	623.33
224.612	624.64
224.843	623.6
225.074	623.8
225.305	624.55
225.536	625.16
225.768	626.38
225.999	624.73
226.23	626.24
226.461	625.29
226.692	626.76
226.923	628.56
227.155	631.24
227.386	632.44
227.617	632.15
227.848	632.6
228.079	633.98
228.31	634.6
228.541	636.25
228.772	636.8
229.003	637.45
229.234	636.84
229.465	636.24
229.696	633.25
229.927	633.25
230.158	633.71
230.389	634.76
230.62	633.87
230.85	633.76
231.081	633.93
231.312	634.18
231.543	633.75
231.774	634.56
232.005	635.36
232.236	635.4
232.466	635.93
232.697	636.35
232.928	635.51
233.159	635.4
233.389	634.62
233.62	634.24
233.851	634.15
234.082	634.98
234.312	635.02
234.543	635.07
234.774	635.16
235.004	635.49
235.235	636.18
235.466	636.38
235.696	635.36
235.927	636.24
236.157	635.85
236.388	636.6
236.618	635.96
236.849	635.09
237.08	634.73
237.31	635.53
237.541	634.11
237.771	632.76
238.002	634.05
238.232	633.51
238.463	632.93
238.693	633
238.923	631.29
239.154	631.89
239.384	632.02
239.615	631.35
239.845	630.71
240.075	630.87
240.306	629.96
240.536	626.93
240.766	627.76
240.997	626.65
241.227	626.04
241.457	626.65
241.687	624.91
241.918	624.51
242.148	624.18
242.378	623.47
242.608	623.13
242.839	623.67
243.069	625.36
243.299	623.96
243.529	626.31
243.759	626.6
243.989	626.07
244.22	626.29
244.45	625.36
244.68	624.91
244.91	626.02
245.14	625.82
245.37	624.65
245.6	622.73
245.83	623.09
246.06	620.11
246.29	619.64
246.52	618.95
246.75	618.75
246.98	618.76
247.21	616.87
247.44	615.15
247.67	614.22
247.9	613.95
248.13	613.15
248.359	612.09
248.589	610.11
248.819	609.29
249.049	608.24
249.279	607.69
249.509	605.16
249.738	605.71
249.968	605.22
250.198	603.09
250.428	602.89
250.657	602.22
250.887	601.69
251.117	603.22
251.347	602.53
251.576	600.98
251.806	599.6
252.036	600.44
252.265	599.93
252.495	599.69
252.725	599.85
252.954	599.55
253.184	599.4
253.413	599.05
253.643	598.29
253.873	597.11
254.102	597.47
254.332	598.04
254.561	597.24
254.791	597.09
255.02	597.22
255.25	597.55
255.479	597.69
255.708	597.35
255.938	596.29
256.167	594.51
256.397	594.47
256.626	594.27
256.856	592.8
257.085	591.35
257.314	590.27
257.544	589.67
257.773	588.82
258.002	587.4
258.232	586.8
258.461	585.96
258.69	586.25
258.919	586.64
259.149	585.35
259.378	584.35
259.607	584.96
259.836	584.69
260.065	583.13
260.295	583
260.524	581.58
260.753	581.75
260.982	580.16
261.211	578.73
261.44	576.6
261.669	576.02
261.899	575.75
262.128	574.89
262.357	573.6
262.586	573.22
262.815	571.64
263.044	571.87
263.273	572.18
263.502	573.38
263.731	572.55
263.96	571.73
264.189	571.31
264.418	571.49
264.646	569.82
264.875	569.11
265.104	567.36
265.333	566.53
265.562	564.98
265.791	562.15
266.02	560.6
266.249	559.65
266.477	559.29
266.706	557.42
266.935	555.07
267.164	554.91
267.393	554.45
267.621	554.27
267.85	553.31
268.079	553.13
268.307	552.24
268.536	552.25
268.765	552.35
268.993	551.4
269.222	551.29
269.451	551.55
269.679	551.65
269.908	551.45
270.137	551.07
270.365	551.53
270.594	551.62
270.822	551.71
271.051	551.36
271.279	551.49
271.508	551.96
271.736	552.42
271.965	553
272.193	553
272.422	553.89
272.65	554.27
272.879	553.25
273.107	551.87
273.336	550.84
273.564	549.07
273.792	547.29
274.021	545.6
274.249	544.73
274.477	544.05
274.706	542.2
274.934	539.64
275.162	537.91
275.391	537.31
275.619	536.73
275.847	536.47
276.075	536.65
276.304	537.4
276.532	537.25
276.76	535.91
276.988	533.95
277.216	532.24
277.445	533.27
277.673	532.93
277.901	531.45
278.129	530.64
278.357	530.2
278.585	529.55
278.813	528.24
279.041	526.76
279.269	526.84
279.497	526.4
279.725	527
279.954	524.84
280.182	523.49
280.41	523.16
280.637	522.35
280.865	522.6
281.093	520.96
281.321	520.04
281.549	521.13
281.777	520.18
282.005	518.96
282.233	519.15
282.461	519.51
282.689	517.67
282.916	518.78
283.144	518.87
283.372	517.96
283.6	519.55
283.828	519.35
284.055	518.2
284.283	518.2
284.511	518.44
284.739	517.8
284.966	516.85
285.194	518.2
285.422	515.75
285.649	516.05
285.877	514.33
286.105	512.07
286.332	511.64
286.56	511
286.788	510.31
287.015	509.73
287.243	508.71
287.47	507.85
287.698	506.55
287.925	507.33
288.153	506.93
288.381	507.65
288.608	507.36
288.836	506.35
289.063	505.75
289.29	506.04
289.518	506.05
289.745	505.15
289.973	504.4
290.2	504.49
290.428	502.95
290.655	501.2
290.882	499.49
291.11	498.31
291.337	498.13
291.564	497.45
291.792	496.02
292.019	494.62
292.246	494.16
292.473	493.31
292.701	492.65
292.928	492.91
293.155	492.93
293.382	492.76
293.61	493.47
293.837	492.91
294.064	491.27
294.291	490.33
294.518	489.8
294.745	490.27
294.972	490.33
295.2	490.22
295.427	489.04
295.654	487.31
295.881	487.29
296.108	486.15
296.335	485.93
296.562	485.96
296.789	486.25
297.016	486.4
297.243	484.87
297.47	483.55
297.697	481.38
297.924	482.15
298.151	481.15
298.378	479.15
298.604	479.24
298.831	477.75
299.058	477.89
299.285	476.58
299.512	475.27
299.739	475.65
299.966	476.29
300.192	476.91
300.419	474.27
300.646	473.73
300.873	473.09
301.099	473
301.326	473.45
301.553	472.71
301.78	473.85
302.006	473.69
302.233	471.67
302.46	470.44
302.686	470.33
302.913	471.44
303.14	472.35
303.366	473.15
303.593	472.07
303.819	471.73
304.046	469.69
304.272	467.45
304.499	466.04
304.725	466.05
304.952	466.65
305.179	466.2
305.405	466.58
305.631	465.49
305.858	465.75
306.084	464.84
306.311	464
306.537	465.35
306.764	465.29
306.99	466.36
307.216	466.4
307.443	465.22
307.669	465.55
307.895	463.11
308.122	462.45
308.348	461.64
308.574	461.47
308.801	461.55
309.027	461.07
309.253	460.91
309.479	460.24
309.706	460.73
309.932	461.49
310.158	460.62
310.384	461.75
310.61	463
310.837	462.75
311.063	463.8
311.289	463.33
311.515	464.2
311.741	464.44
311.967	464.89
312.193	464.6
312.419	464.29
312.645	464.82
312.871	463.73
313.097	462.84
313.323	463.87
313.549	463.91
313.775	463.64
314.001	462.69
314.227	462.78
314.453	462.4
314.679	462.4
314.905	461.82
315.131	460.84
315.357	461.6
315.583	461.73
315.809	461.11
316.034	461.29
316.26	462.69
316.486	463.75
316.712	465.53
316.938	466.8
317.163	466.49
317.389	467.93
317.615	469.2
317.841	469.71
318.066	470.6
318.292	470.58
318.518	470.82
318.743	470
318.969	469.87
319.195	469.35
319.42	468.44
319.646	470.51
319.872	470.18
320.097	470.76
320.323	471.49
320.548	473.82
320.774	476.69
320.999	475.98
321.225	477.18
321.45	478.58
321.676	479.44
321.901	481.89
322.127	483.55
322.352	485.02
322.578	486.84
322.803	489.64
323.029	489.89
323.254	489.84
323.479	492.89
323.705	495.76
323.93	497.45
324.155	499.29
324.381	501.27
324.606	503.15
324.831	505.75
325.057	507.58
325.282	509.58
325.507	511.05
325.732	513.27
325.958	515.75
326.183	517.09
326.408	519.84
326.633	523.05
326.858	525.15
327.084	527.38
327.309	528.89
327.534	531.33
327.759	534.35
327.984	537.71
328.209	540.67
328.434	544.36
328.659	547.69
328.884	550.36
329.109	552.93
329.334	556.4
329.559	559.8
329.784	564.38
330.009	568.18
330.234	572.13
330.459	575.93
330.684	579.51
330.909	581.91
331.134	585.76
331.359	589.96
331.584	593.69
331.809	597.27
332.034	600.71
332.259	604.69
332.483	608.51
332.708	612.07
332.933	616.2
333.158	621.02
333.383	626.89
333.607	632.69
333.832	637.24
334.057	642.8
334.282	647.44
334.506	652.58
334.731	657.85
334.956	663.04
335.18	668.05
335.405	675.36
335.63	680.76
335.854	685.47
336.079	690.76
336.303	697.4
336.528	703.11
336.753	709
336.977	715.25
337.202	721.4
337.426	727.2
337.651	733.98
337.875	738.02
338.1	745.31
338.324	753.16
338.549	758.73
338.773	765.04
338.997	771.78
339.222	780.25
339.446	786.4
339.671	793.75
339.895	802.05
340.119	808.98
340.344	816.98
340.568	824.02
340.792	830.91
341.017	840.18
341.241	849.35
341.465	857.51
341.689	864.76
341.914	872.98
342.138	880.8
342.362	891.05
342.586	899.87
342.811	908.47
343.035	916.25
343.259	924.58
343.483	931.84
343.707	940.87
343.931	951.2
344.155	959.93
344.38	969.55
344.604	978.89
344.828	986.25
345.052	993.22
345.276	1003.15
345.5	1012.24
345.724	1023.76
345.948	1034.31
346.172	1042.85
346.396	1051.13
346.62	1062.15
346.844	1073.05
347.068	1082.36
347.292	1093.4
347.515	1105.67
347.739	1117.78
347.963	1130.29
348.187	1139.31
348.411	1149.15
348.635	1160.49
348.859	1171.76
349.082	1183.49
349.306	1193.8
349.53	1205.98
349.754	1214.51
349.977	1225.44
350.201	1234.62
350.425	1245.51
350.649	1256.73
350.872	1270.6
351.096	1281.07
351.32	1290.96
351.543	1302
351.767	1314.25
351.99	1324.91
352.214	1337.04
352.438	1346.95
352.661	1358.47
352.885	1369.51
353.108	1381.18
353.332	1392.44
353.555	1403.71
353.779	1416.73
354.002	1427.02
354.226	1438.98
354.449	1452.87
354.673	1464.24
354.896	1478.22
355.12	1490.64
355.343	1504.4
355.566	1516.91
355.79	1526.95
356.013	1538.42
356.237	1550.73
356.46	1563.89
356.683	1575.4
356.907	1586.36
357.13	1600.56
357.353	1612.13
357.576	1623.64
357.8	1635.02
358.023	1647.95
358.246	1660.67
358.469	1675.35
358.693	1687.51
358.916	1700.38
359.139	1713.84
359.362	1728.47
359.585	1740.22
359.808	1755.55
360.031	1768.67
360.255	1781.31
360.478	1793.98
360.701	1808
360.924	1820.73
361.147	1835.2
361.37	1847.45
361.593	1860.84
361.816	1873.07
362.039	1888.64
362.262	1900.51
362.485	1912.96
362.708	1928.8
362.931	1944.11
363.154	1959.75
363.377	1972.69
363.599	1983.8
363.822	1997.6
364.045	2010.96
364.268	2026.07
364.491	2040.36
364.714	2055.56
364.936	2073.33
365.159	2086.76
365.382	2099.33
365.605	2111.6
365.828	2130.67
366.05	2148.16
366.273	2165.07
366.496	2179.62
366.718	2194.44
366.941	2207.64
367.164	2222.87
367.386	2238.55
367.609	2254.62
367.832	2271.29
368.054	2288.6
368.277	2303.65
368.5	2320.47
368.722	2336.76
368.945	2353.85
369.167	2369.71
369.39	2387.27
369.612	2405.58
369.835	2422.73
370.057	2437.16
370.28	2455.24
370.502	2471.78
370.725	2488.29
370.947	2503.78
371.169	2522.71
371.392	2540.36
371.614	2556.85
371.837	2574.67
372.059	2590.07
372.281	2606.4
372.504	2623.95
372.726	2639
372.948	2654.96
373.171	2672.51
373.393	2691.55
373.615	2708.11
373.837	2727.65
374.06	2747.38
374.282	2766.95
374.504	2783.49
374.726	2800.22
374.948	2821.16
375.17	2841.64
375.393	2863.98
375.615	2880.44
375.837	2900.31
376.059	2918.47
376.281	2938.09
376.503	2955.75
376.725	2974.18
376.947	2996.35
377.169	3019.16
377.391	3035.78
377.613	3056.93
377.835	3077.04
378.057	3099.16
378.279	3118.95
378.501	3141.13
378.723	3162.29
378.945	3186.07
379.167	3209.25
379.389	3229.8
379.611	3252.87
379.833	3278.16
380.054	3300.76
380.276	3324.24
380.498	3348.4
380.72	3374.82
380.942	3397.51
381.163	3419.65
381.385	3442.95
381.607	3466.58
381.829	3493.89
382.05	3516.4
382.272	3541.62
382.494	3566.2
382.716	3590.15
382.937	3618.05
383.159	3639.93
383.381	3665.84
383.602	3694.76
383.824	3720.11
384.045	3748.98
384.267	3776.4
384.488	3804.35
384.71	3833.07
384.932	3863.73
385.153	3891.16
385.375	3914.65
385.596	3943.55
385.818	3974.56
386.039	3997.95
386.261	4029.93
386.482	4055.84
386.703	4083.15
386.925	4110.24
387.146	4138.55
387.368	4164.78
387.589	4195.91
387.81	4228.6
388.032	4259.95
388.253	4286.64
388.474	4320.64
388.696	4346.36
388.917	4376.78
389.138	4401.95
389.359	4434.24
389.581	4462.09
389.802	4489.29
390.023	4514.45
390.244	4545.27
390.465	4573.31
390.687	4602.91
390.908	4633.93
391.129	4666.35
391.35	4696.07
391.571	4729.53
391.792	4763.6
392.013	4797.24
392.234	4832.62
392.455	4866.47
392.677	4896.49
392.898	4928.89
393.119	4963.36
393.34	4993.18
393.561	5023.71
393.782	5058
394.003	5094
394.223	5122.31
394.444	5154.89
394.665	5186.4
394.886	5221
395.107	5254.02
395.328	5284.55
395.549	5316.76
395.77	5349.42
395.99	5387.53
396.211	5420.33
396.432	5455.95
396.653	5488.56
396.874	5524.2
397.094	5556.96
397.315	5589.69
397.536	5621.2
397.757	5656.65
397.977	5692.33
398.198	5728.67
398.419	5759.02
398.639	5792.84
398.86	5825.13
399.081	5860.36
399.301	5891.35
399.522	5927.82
399.742	5964.29
399.963	6002.44
400.184	6040.76
400.404	6076.44
400.625	6111.24
400.845	6146.78
401.066	6183.2
401.286	6219.27
401.507	6258.93
401.727	6299.87
401.948	6333.87
402.168	6369.78
402.388	6403.11
402.609	6437.29
402.829	6474.16
403.05	6507.15
403.27	6544.04
403.49	6582.09
403.711	6612.78
403.931	6648
404.151	6680.65
404.372	6716.78
404.592	6749.87
404.812	6785.16
405.032	6818.64
405.253	6850.45
405.473	6890.29
405.693	6925.6
405.913	6959.11
406.133	6998.29
406.353	7029.96
406.574	7068.51
406.794	7103.84
407.014	7142.51
407.234	7176.91
407.454	7215.65
407.674	7255.96
407.894	7291.2
408.114	7328.47
408.334	7366.69
408.554	7406.15
408.774	7447.53
408.994	7482.36
409.214	7524.85
409.434	7562.38
409.654	7607.8
409.874	7645.91
410.094	7678.8
410.314	7713.53
410.534	7754.93
410.754	7788.73
410.974	7823.49
411.193	7860.6
411.413	7900.05
411.633	7936.44
411.853	7976.51
412.073	8010.51
412.292	8049.42
412.512	8088.35
412.732	8130.24
412.952	8167.45
413.171	8209.4
413.391	8252.09
413.611	8296.49
413.831	8335.8
414.05	8377.98
414.27	8422.27
414.489	8464.44
414.709	8507.71
414.929	8555.47
415.148	8596.24
415.368	8637.2
415.587	8682.2
415.807	8724.45
416.026	8767
416.246	8810.15
416.465	8852.27
416.685	8889.47
416.904	8929.82
417.124	8972.42
417.343	9010.93
417.563	9058.42
417.782	9103.04
418.002	9146.45
418.221	9190.76
418.44	9228.07
418.66	9268.6
418.879	9309.89
419.098	9353.33
419.318	9401.51
419.537	9447.33
419.756	9500.67
419.976	9543.85
420.195	9587.33
420.414	9631.53
420.633	9674.33
420.853	9720.71
421.072	9768.36
421.291	9817.53
421.51	9867.05
421.729	9908.98
421.948	9949.69
422.168	9983.75
422.387	10030.27
422.606	10073.07
422.825	10118.64
423.044	10164.45
423.263	10210.67
423.482	10256.31
423.701	10298.76
423.92	10342.15
424.139	10385.64
424.358	10433.2
424.577	10478.98
424.796	10516.75
425.015	10565.4
425.234	10606.07
425.453	10652.56
425.672	10698.82
425.891	10741.76
426.11	10788.22
426.328	10833.13
426.547	10876.58
426.766	10922.22
426.985	10969.58
427.204	11016.87
427.422	11063.75
427.641	11116.98
427.86	11162.42
428.079	11206.44
428.297	11257
428.516	11303.56
428.735	11352.07
428.954	11406.09
429.172	11451.07
429.391	11498.09
429.61	11551.95
429.828	11597.82
430.047	11641.24
430.265	11688.95
430.484	11738.45
430.703	11782.98
430.921	11832.33
431.14	11875.36
431.358	11920.8
431.577	11968.89
431.795	12016.6
432.014	12066.69
432.232	12115.98
432.451	12162.64
432.669	12204.95
432.887	12254.18
433.106	12303.62
433.324	12348.58
433.543	12398.24
433.761	12447.56
433.979	12495.93
434.198	12546.8
434.416	12590.85
434.634	12639.84
434.853	12690.02
435.071	12744.6
435.289	12790.55
435.507	12832.98
435.726	12874.69
435.944	12921.98
436.162	12969.85
436.38	13012.56
436.598	13055.65
436.817	13097.4
437.035	13141.75
437.253	13187.49
437.471	13235.6
437.689	13283.87
437.907	13333.58
438.125	13388.75
438.343	13436.44
438.561	13480.35
438.78	13529.93
438.998	13580.24
439.216	13632.6
439.434	13677.44
439.652	13728.51
439.869	13767.38
440.087	13814.35
440.305	13864.29
440.523	13908.27
440.741	13956.75
440.959	14007.69
441.177	14059.76
441.395	14103.07
441.613	14147.49
441.831	14201.95
442.048	14243.89
442.266	14293.44
442.484	14341.09
442.702	14391.47
442.919	14438.29
443.137	14490.58
443.355	14537.67
443.573	14587.25
443.79	14640.02
444.008	14692.98
444.226	14734.84
444.443	14785.09
444.661	14835.11
444.879	14884.8
445.096	14934.75
445.314	14994.58
445.532	15036.76
445.749	15085.64
445.967	15130.76
446.184	15177.47
446.402	15224.13
446.619	15277.4
446.837	15325.05
447.054	15374.71
447.272	15419.73
447.489	15458.2
447.707	15499.58
447.924	15552.78
448.141	15597.55
448.359	15644.62
448.576	15692.22
448.794	15745.82
449.011	15793.78
449.228	15845.16
449.446	15895.8
449.663	15946.11
449.88	16001.84
450.098	16048.55
450.315	16092.11
450.532	16148.89
450.749	16199.67
450.967	16252.11
451.184	16297.56
451.401	16346.04
451.618	16393.16
451.835	16439.6
452.052	16486.87
452.27	16531.89
452.487	16583.38
452.704	16631.2
452.921	16673
453.138	16717.76
453.355	16761.64
453.572	16812.29
453.789	16861.49
454.006	16911.56
454.223	16959.76
454.44	17010.31
454.657	17061.31
454.874	17114.15
455.091	17169.38
455.308	17219.67
455.525	17269.24
455.742	17321.4
455.959	17365.2
456.176	17409.87
456.393	17454.84
456.609	17503.6
456.826	17547.04
457.043	17591.09
457.26	17625.93
457.477	17672
457.693	17713.47
457.91	17756.93
458.127	17801.95
458.344	17845.05
458.56	17887.56
458.777	17927.4
458.994	17966.16
459.21	18001.82
459.427	18038.16
459.644	18073.38
459.86	18098.73
460.077	18139.96
460.294	18180.91
460.51	18213.16
460.727	18243.4
460.943	18280.84
461.16	18315.64
461.376	18349.87
461.593	18393.36
461.809	18434.55
462.026	18474.62
462.242	18515
462.459	18547.4
462.675	18583.47
462.892	18623.11
463.108	18663.6
463.324	18696.91
463.541	18741.96
463.757	18787.47
463.974	18825.2
464.19	18868.58
464.406	18921.15
464.623	18967.93
464.839	19022.53
465.055	19075.44
465.271	19129.38
465.488	19176.87
465.704	19231.64
465.92	19282.33
466.136	19333.13
466.353	19386.11
466.569	19432.45
466.785	19484.76
467.001	19543.53
467.217	19596.36
467.433	19646.78
467.649	19702.2
467.865	19769.76
468.082	19833.31
468.298	19892.64
468.514	19953.58
468.73	20016.33
468.946	20085.2
469.162	20145.78
469.378	20206.85
469.594	20264.51
469.81	20326.38
470.026	20383.87
470.242	20438.05
470.457	20503.15
470.673	20563.05
470.889	20628.49
471.105	20697.55
471.321	20769.4
471.537	20836.87
471.753	20905
471.968	20975.82
472.184	21045.91
472.4	21121.07
472.616	21201.56
472.832	21266.96
473.047	21350.84
473.263	21426.24
473.479	21497.95
473.694	21566.69
473.91	21635.29
474.126	21713.85
474.341	21792.22
474.557	21876.25
474.773	21941.73
474.988	22008.16
475.204	22086.53
475.42	22155.51
475.635	22234.36
475.851	22300.47
476.066	22366.36
476.282	22437.6
476.497	22503.07
476.713	22572.84
476.928	22632.42
477.144	22702.24
477.359	22774.56
477.575	22835.58
477.79	22900.58
478.005	22952.98
478.221	23020.65
478.436	23083.35
478.651	23147.58
478.867	23203.02
479.082	23262.51
479.297	23325.2
479.513	23388.85
479.728	23442.65
479.943	23498.2
480.159	23548.16
480.374	23604.67
480.589	23658.91
480.804	23714.45
481.019	23765.11
481.235	23822.85
481.45	23861.76
481.665	23908.09
481.88	23958.95
482.095	24010.8
482.31	24063.96
482.525	24118.76
482.741	24166.16
482.956	24217.8
483.171	24268.69
483.386	24308.07
483.601	24343.58
483.816	24397.98
484.031	24437.07
484.246	24475.49
484.461	24521.02
484.676	24567.98
484.891	24603.11
485.105	24656.53
485.32	24699.82
485.535	24737.56
485.75	24786.22
485.965	24847.56
486.18	24889.35
486.395	24930.53
486.609	24975.31
486.824	25014.42
487.039	25054.42
487.254	25095.98
487.469	25126.56
487.683	25162.96
487.898	25204.4
488.113	25256.71
488.327	25280.76
488.542	25326.35
488.757	25368.25
488.972	25407.53
489.186	25440.33
489.401	25479.71
489.615	25522.13
489.83	25561.15
490.045	25594.98
490.259	25624.29
490.474	25647.95
490.688	25685.47
490.903	25714
491.117	25751.53
491.332	25776.29
491.546	25813.44
491.761	25838.51
491.975	25864.07
492.19	25893.31
492.404	25928.49
492.618	25965.65
492.833	25994.95
493.047	26026.96
493.262	26056.78
493.476	26085.8
493.69	26115.04
493.905	26144.87
494.119	26169.04
494.333	26196.4
494.547	26218.11
494.762	26239.04
494.976	26265.55
495.19	26286.62
495.404	26312
495.619	26339.44
495.833	26354.96
496.047	26382.07
496.261	26396.67
496.475	26412.93
496.689	26433.98
496.903	26451.4
497.117	26459.02
497.332	26459.51
497.546	26465.13
497.76	26449.69
497.974	26430.4
498.188	26425.53
498.402	26411.93
498.616	26403.24
498.83	26392.47
499.044	26377.64
499.258	26359.64
499.472	26359.87
499.685	26352.65
499.899	26359.67
500.113	26378.76
500.327	26392.18
500.541	26407.22
500.755	26425.47
500.969	26442.33
501.183	26466.73
501.396	26482.87
501.61	26504.91
501.824	26521.78
502.038	26555.27
502.251	26574.65
502.465	26596.11
502.679	26618.05
502.892	26641.33
503.106	26656.07
503.32	26678.33
503.533	26693.87
503.747	26721.65
503.961	26753.56
504.174	26777.09
504.388	26802.73
504.602	26829.25
504.815	26850.09
505.029	26889.65
505.242	26924.78
505.456	26975.2
505.669	27020.02
505.883	27070.96
506.096	27128.36
506.31	27181.15
506.523	27230.76
506.736	27278.45
506.95	27328.85
507.163	27393.95
507.377	27451.27
507.59	27509.89
507.803	27571.84
508.017	27629.44
508.23	27702.53
508.443	27752.71
508.657	27811.4
508.87	27887.25
509.083	27968.49
509.296	28051.84
509.51	28125.64
509.723	28201.31
509.936	28288.25
510.149	28365.47
510.363	28452.75
510.576	28525.85
510.789	28624.42
511.002	28721.62
511.215	28818.4
511.428	28911.95
511.641	29010.91
511.854	29110.91
512.067	29215.98
512.28	29311.89
512.493	29420.42
512.707	29524.51
512.92	29631.6
513.132	29731.53
513.345	29838.98
513.558	29943.42
513.771	30040.27
513.984	30143.85
514.197	30250.82
514.41	30357.07
514.623	30462.89
514.836	30566.45
515.049	30674.67
515.262	30781.13
515.474	30892.36
515.687	30988.96
515.9	31085.76
516.113	31190.73
516.325	31284.36
516.538	31380.25
516.751	31476.85
516.964	31564.2
517.176	31654.29
517.389	31741.75
517.602	31827.38
517.814	31904.29
518.027	31999.49
518.24	32078.76
518.452	32152.18
518.665	32236.51
518.877	32315.67
519.09	32390.51
519.303	32470.44
519.515	32540.73
519.728	32611.91
519.94	32677.36
520.153	32749.76
520.365	32808.31
520.578	32885.85
520.79	32966.55
521.002	33028.4
521.215	33087.69
521.427	33147.65
521.64	33195.69
521.852	33246.76
522.064	33303.87
522.277	33367.64
522.489	33425
522.701	33475.84
522.914	33517.25
523.126	33555.2
523.338	33598.45
523.551	33637.87
523.763	33686.04
523.975	33748.13
524.187	33802.69
524.399	33845.18
524.612	33883.82
524.824	33922.45
525.036	33976.2
525.248	34019.22
525.46	34070.8
525.672	34116.93
525.884	34165.27
526.096	34203.05
526.308	34226.02
526.521	34262.25
526.733	34297.35
526.945	34332.47
527.157	34365.22
527.369	34398.49
527.581	34428.95
527.793	34452.82
528.004	34478.36
528.216	34500.78
528.428	34525.02
528.64	34567.58
528.852	34598.62
529.064	34632.2
529.276	34662.78
529.488	34690.67
529.699	34715.05
529.911	34749.47
530.123	34773.87
530.335	34804.55
530.547	34846.02
530.758	34876.47
530.97	34910.18
531.182	34950.33
531.393	34980.82
531.605	35016.35
531.817	35049.75
532.029	35081.47
532.24	35109.38
532.452	35144.98
532.663	35166.58
532.875	35188.27
533.087	35217.31
533.298	35235.42
533.51	35242.44
533.721	35257.58
533.933	35282.53
534.144	35300.33
534.356	35314.15
534.567	35330.29
534.779	35344.2
534.99	35370.04
535.202	35395.2
535.413	35411.73
535.624	35431.47
535.836	35462.89
536.047	35477.96
536.259	35487.71
536.47	35504.85
536.681	35525.76
536.893	35549.98
537.104	35571.78
537.315	35585.6
537.526	35601.93
537.738	35617.84
537.949	35623.33
538.16	35631.16
538.371	35656.36
538.582	35678.85
538.794	35693.58
539.005	35705.98
539.216	35721.84
539.427	35738.44
539.638	35750.45
539.849	35756
540.06	35775.15
540.272	35798.91
540.483	35815.13
540.694	35829.31
540.905	35836.47
541.116	35855.56
541.327	35871.89
541.538	35883.98
541.749	35895.09
541.96	35911.93
542.17	35930.35
542.381	35936.38
542.592	35949.36
542.803	35954.13
543.014	35962.71
543.225	35970.51
543.436	35976.22
543.647	35985.53
543.857	35991.69
544.068	35993.33
544.279	36000.36
544.49	36001.67
544.701	36014.51
544.911	36022.71
545.122	36038.35
545.333	36050.55
545.543	36066.93
545.754	36078.51
545.965	36088.25
546.175	36106.11
546.386	36123.16
546.597	36137.85
546.807	36165.15
547.018	36187.09
547.229	36195.76
547.439	36195.71
547.65	36204.24
547.86	36209.29
548.071	36215.33
548.281	36219.71
548.492	36217.36
548.702	36227.87
548.913	36238.85
549.123	36234.29
549.333	36225.07
549.544	36228.04
549.754	36249.47
549.965	36252.6
550.175	36273.45
550.385	36295.42
550.596	36320.02
550.806	36330.8
551.016	36340.87
551.227	36348.78
551.437	36362.67
551.647	36379.4
551.857	36404.35
552.068	36412.16
552.278	36426
552.488	36428.69
552.698	36429.87
552.908	36428.64
553.119	36433.6
553.329	36438.29
553.539	36447.53
553.749	36441.96
553.959	36448.35
554.169	36440.35
554.379	36429.75
554.589	36434.93
554.799	36441.95
555.009	36446.58
555.219	36449.93
555.429	36463.45
555.639	36464.18
555.849	36462.53
556.059	36464.84
556.269	36444.31
556.479	36440.33
556.689	36461.89
556.899	36463.89
557.109	36472.51
557.319	36479.58
557.528	36477.36
557.738	36466.98
557.948	36465.33
558.158	36456.69
558.368	36460.89
558.577	36469.58
558.787	36475.18
558.997	36458.33
559.207	36456.18
559.416	36431.87
559.626	36408.02
559.836	36395.27
560.045	36397.2
560.255	36396.33
560.465	36397.24
560.674	36399.51
560.884	36401.67
561.093	36394.18
561.303	36398.64
561.512	36390.8
561.722	36391.18
561.932	36393.65
562.141	36398.22
562.351	36384.84
562.56	36381.64
562.769	36387.93
562.979	36388.89
563.188	36388.02
563.398	36392.95
563.607	36387.93
563.817	36387.82
564.026	36387.62
564.235	36384.36
564.445	36380.25
564.654	36382.18
564.863	36382.8
565.073	36372.76
565.282	36367.55
565.491	36361.35
565.7	36358.85
565.91	36346.42
566.119	36339.42
566.328	36328.24
566.537	36325.04
566.746	36320.27
566.956	36305.51
567.165	36293.51
567.374	36282.6
567.583	36268.02
567.792	36251.31
568.001	36236.47
568.21	36218.16
568.419	36196.73
568.628	36172.31
568.837	36148.6
569.046	36123.98
569.255	36106.93
569.464	36083.85
569.673	36058.45
569.882	36029.44
570.091	36017.84
570.3	35996.73
570.509	35983.31
570.718	35967.82
570.927	35962.18
571.135	35951.09
571.344	35936.76
571.553	35936.11
571.762	35921.95
571.971	35924.8
572.18	35923.73
572.388	35913.47
572.597	35898.91
572.806	35887.44
573.014	35875.31
573.223	35855.11
573.432	35834.04
573.641	35824.49
573.849	35799.35
574.058	35775.44
574.266	35743.76
574.475	35725.02
574.684	35698.02
574.892	35687.35
575.101	35671.55
575.309	35664.71
575.518	35667.78
575.726	35659.33
575.935	35649.16
576.143	35635.67
576.352	35624.96
576.56	35613.75
576.769	35599.78
576.977	35592.98
577.186	35573.67
577.394	35561.4
577.602	35529.29
577.811	35502
578.019	35489.09
578.228	35469.33
578.436	35446.75
578.644	35429.55
578.852	35404.8
579.061	35377.62
579.269	35350.24
579.477	35336
579.685	35321.89
579.894	35310.65
580.102	35288.82
580.31	35272.96
580.518	35256.78
580.726	35247.05
580.935	35249.73
581.143	35237.42
581.351	35223.82
581.559	35207.98
581.767	35173.49
581.975	35150.55
582.183	35123.15
582.391	35096.35
582.599	35075.29
582.807	35050.38
583.015	35034.22
583.223	34999.58
583.431	34978.38
583.639	34963.07
583.847	34949.33
584.055	34941.05
584.263	34916.89
584.471	34899.51
584.678	34887.55
584.886	34865.33
585.094	34847.24
585.302	34818.18
585.51	34791.27
585.718	34779.15
585.925	34757.89
586.133	34735.25
586.341	34718.58
586.549	34703.58
586.756	34694
586.964	34669.75
587.172	34654.53
587.379	34634.31
587.587	34615.22
587.795	34611.55
588.002	34582.95
588.21	34561.45
588.417	34539.04
588.625	34503.56
588.833	34476.96
589.04	34448.44
589.248	34429.16
589.455	34398.18
589.663	34373.18
589.87	34346.27
590.078	34313.27
590.285	34284.78
590.492	34264.2
590.7	34242.55
590.907	34224.04
591.115	34197.4
591.322	34166.73
591.529	34144.33
591.737	34117.76
591.944	34088.4
592.151	34067.95
592.359	34035.05
592.566	34010.95
592.773	33979.42
592.981	33941.73
593.188	33920.91
593.395	33893.42
593.602	33864.64
593.809	33832.44
594.017	33808.98
594.224	33782.71
594.431	33755.65
594.638	33731.13
594.845	33700.51
595.052	33670.8
595.259	33662
595.466	33620.91
595.673	33608.73
595.88	33591.47
596.088	33573.35
596.295	33553.51
596.502	33530.76
596.709	33507.91
596.915	33491.93
597.122	33481.62
597.329	33459.87
597.536	33437.56
597.743	33429.53
597.95	33408.42
598.157	33379.45
598.364	33337.87
598.571	33292.2
598.777	33256.36
598.984	33207.87
599.191	33149.4
599.398	33098.71
599.605	33050.95
599.811	32991.07
600.018	32931.22
600.225	32870
600.431	32819.04
600.638	32789.27
600.845	32761.33
601.052	32724.13
601.258	32690.87
601.465	32660.93
601.671	32608.67
601.878	32544.36
602.085	32467.55
602.291	32377.87
602.498	32265.84
602.704	32132.71
602.911	31965.45
603.117	31773.25
603.324	31573.67
603.53	31355.07
603.737	31127.6
603.943	30892.09
604.15	30641.31
604.356	30396.35
604.562	30133.82
604.769	29872.84
604.975	29612.16
605.181	29356.15
605.388	29100.98
605.594	28833
605.8	28577.27
606.007	28308.87
606.213	28040.44
606.419	27779.02
606.625	27498.05
606.832	27230.75
607.038	26953.65
607.244	26683.31
607.45	26411.82
607.656	26138.35
607.863	25856.35
608.069	25573.58
608.275	25290.62
608.481	25011.16
608.687	24726.24
608.893	24449.11
609.099	24170.07
609.305	23897.36
609.511	23611.85
609.717	23317.07
609.923	23030.75
610.129	22738.8
610.335	22440.22
610.541	22144.02
610.747	21838.75
610.953	21536.89
611.159	21221.35
611.365	20902.33
611.571	20579.91
611.776	20258.44
611.982	19941.24
612.188	19616.11
612.394	19290.93
612.6	18961.85
612.806	18636.78
613.011	18312.49
613.217	17986.35
613.423	17670.22
613.628	17355.96
613.834	17041.09
614.04	16732.62
614.246	16423.42
614.451	16121
614.657	15833.27
614.862	15555.05
615.068	15264.58
615.274	14989.69
615.479	14718.69
615.685	14453.22
615.89	14198.45
616.096	13936.93
616.301	13675.04
616.507	13416.2
616.712	13155
616.918	12889.6
617.123	12616.96
617.329	12347.98
617.534	12068.93
617.74	11786.15
617.945	11504.27
618.15	11200.75
618.356	10728.2
618.561	9869.96
618.766	8828.64
618.972	7753.02
619.177	6707.04
619.382	5687.44
619.588	4696.11
619.793	4103.96
619.998	3415.04
620.203	2579.55
620.408	1567.4
620.614	584.6
