Data from test1_MAYP1115451__11__10-14-41-457.txt Node

Date: Wed Jun 12 10:14:41 MDT 2024
User: Modes Lab
Spectrometer: MAYP111545
Trigger mode: 0
Integration Time (sec): 8.000000E-3
Scans to average: 5
Electric dark correction enabled: true
Nonlinearity correction enabled: false
Boxcar width: 5
XAxis mode: Wavelengths
Number of Pixels in Spectrum: 2068
>>>>>Begin Spectral Data<<<<<
165.214	164.57
165.449	165.13
165.683	175.38
165.918	183.8
166.152	190.17
166.387	194.93
166.621	127.19
166.856	165.66
167.09	184.73
167.325	208.26
167.559	223.88
167.794	237.46
168.028	244.55
168.263	244.44
168.497	245.01
168.732	246.01
168.966	247.41
169.2	249.06
169.435	250.61
169.669	251.75
169.903	253.37
170.138	254.93
170.372	257.52
170.606	259.32
170.841	260.41
171.075	261.13
171.309	262.01
171.544	263.46
171.778	264.42
172.012	266.72
172.246	268.08
172.48	270.12
172.715	272.84
172.949	274.55
173.183	276.73
173.417	279.44
173.651	280.73
173.885	282.21
174.119	283.44
174.354	284.73
174.588	284.24
174.822	285.9
175.056	284.95
175.29	284.55
175.524	283.86
175.758	283.24
175.992	282.44
176.226	283.12
176.46	283.26
176.694	283.44
176.928	284.01
177.162	285.73
177.396	285.93
177.63	287.86
177.864	288.06
178.097	288.88
178.331	289.88
178.565	291.62
178.799	292.57
179.033	293.84
179.267	295.28
179.5	295.95
179.734	295.66
179.968	296.95
180.202	297.55
180.436	299.02
180.669	300.12
180.903	301.17
181.137	302.61
181.371	303.48
181.604	303.26
181.838	303.55
182.072	304.01
182.305	305.7
182.539	305.77
182.772	306.37
183.006	307.52
183.24	308.64
183.473	312.68
183.707	313.84
183.94	314.39
184.174	316.97
184.408	318.42
184.641	320.41
184.875	321.41
185.108	323.1
185.342	325.08
185.575	326.82
185.808	328.24
186.042	326.04
186.275	325.73
186.509	327.7
186.742	328.86
186.976	330.5
187.209	332.12
187.442	333.7
187.676	334.39
187.909	334.26
188.142	335.13
188.376	336.79
188.609	338.57
188.842	340.52
189.076	342.1
189.309	343.59
189.542	344.39
189.775	345.68
190.009	348.02
190.242	350.32
190.475	353.08
190.708	355.22
190.941	357.53
191.174	359.26
191.408	361.81
191.641	363.21
191.874	364.32
192.107	366.52
192.34	368.66
192.573	369.72
192.806	371.5
193.039	372.73
193.272	374.86
193.505	376.06
193.738	378.1
193.971	378.46
194.204	379.42
194.437	381.77
194.67	383.77
194.903	385.42
195.136	387.28
195.369	390.04
195.602	391.97
195.835	392.84
196.068	396.06
196.301	398.06
196.533	400.21
196.766	402.66
196.999	405.04
197.232	407.08
197.465	407.79
197.698	409.39
197.93	410.46
198.163	413.97
198.396	416.19
198.629	416.7
198.861	418.21
199.094	421.73
199.327	424.72
199.559	426.28
199.792	427.7
200.025	430.46
200.257	434.15
200.49	436.81
200.723	438.5
200.955	440.72
201.188	442.79
201.42	446.28
201.653	449.21
201.886	450.44
202.118	452.62
202.351	454.7
202.583	457.39
202.816	458.17
203.048	460.59
203.281	462.59
203.513	465.02
203.745	467.75
203.978	469.19
204.21	470.61
204.443	473.46
204.675	475.52
204.907	478.62
205.14	481.88
205.372	483.64
205.605	486.44
205.837	487.79
206.069	490.21
206.302	491.7
206.534	493.46
206.766	494.93
206.998	497.7
207.231	500.75
207.463	502.55
207.695	503.7
207.927	506.92
208.159	508.15
208.392	510.64
208.624	512.81
208.856	516.24
209.088	519.48
209.32	521.52
209.552	523.12
209.784	525.72
210.017	528.52
210.249	530.82
210.481	533.08
210.713	535.57
210.945	538.37
211.177	539.21
211.409	540.77
211.641	543.13
211.873	545.92
212.105	547.64
212.337	548.55
212.569	550.15
212.801	551.9
213.033	553.79
213.264	555.21
213.496	556.12
213.728	559.39
213.96	559.86
214.192	561.02
214.424	562.73
214.656	565.86
214.887	567.28
215.119	569.55
215.351	571.24
215.583	572.92
215.815	574.33
216.046	576.64
216.278	578.84
216.51	581.66
216.741	582.95
216.973	584.28
217.205	585.37
217.436	588.37
217.668	590.59
217.9	592.41
218.131	592.77
218.363	594.32
218.595	596.59
218.826	596.55
219.058	598.61
219.289	600.68
219.521	602.59
219.752	603.5
219.984	602.99
220.215	603.04
220.447	604.15
220.678	606.13
220.91	607.37
221.141	608.08
221.373	609.37
221.604	610.01
221.836	609.72
222.067	610.95
222.298	611.7
222.53	614.48
222.761	616.17
222.993	617.5
223.224	618.52
223.455	620.24
223.686	620.86
223.918	621.75
224.149	622.02
224.38	623.7
224.612	623.12
224.843	624.75
225.074	624.9
225.305	625.82
225.536	625.32
225.768	626.12
225.999	626.59
226.23	627.15
226.461	627.88
226.692	628.37
226.923	627.93
227.155	631.37
227.386	631.19
227.617	632.48
227.848	631.77
228.079	633.21
228.31	633.82
228.541	633.72
228.772	633.88
229.003	634.44
229.234	635.61
229.465	636.59
229.696	634.61
229.927	634.52
230.158	633.81
230.389	633.99
230.62	634.73
230.85	633.9
231.081	634.17
231.312	634.37
231.543	634.3
231.774	634.62
232.005	634.88
232.236	634.79
232.466	634.86
232.697	634.46
232.928	634.26
233.159	633.02
233.389	633.82
233.62	634.3
233.851	634.75
234.082	636.13
234.312	634.64
234.543	634.88
234.774	635.53
235.004	635.7
235.235	635.3
235.466	635.97
235.696	636.19
235.927	636.24
236.157	634.75
236.388	634.3
236.618	633.75
236.849	634.81
237.08	635.26
237.31	634.53
237.541	634.19
237.771	634.44
238.002	634.21
238.232	635.06
238.463	635.17
238.693	635.33
238.923	634.62
239.154	633.95
239.384	632.37
239.615	631.41
239.845	630.5
240.075	629.92
240.306	628.86
240.536	628.5
240.766	626.17
240.997	624.73
241.227	624.17
241.457	623.35
241.687	623.42
241.918	624.84
242.148	623.32
242.378	622.84
242.608	623.35
242.839	624.02
243.069	623.1
243.299	623.15
243.529	624.55
243.759	625.19
243.989	625.48
244.22	623.84
244.45	622.19
244.68	622.1
244.91	622.41
245.14	621.68
245.37	620.7
245.6	620.77
245.83	620.73
246.06	618.77
246.29	617.73
246.52	618.02
246.75	616.79
246.98	615.55
247.21	616.21
247.44	615.24
247.67	614.39
247.9	613.73
248.13	613.35
248.359	612.55
248.589	611.53
248.819	610.39
249.049	607.88
249.279	608.48
249.509	609.57
249.738	607.41
249.968	606.88
250.198	606.46
250.428	605.55
250.657	603.52
250.887	604.15
251.117	604.46
251.347	604.7
251.576	604.77
251.806	604.44
252.036	604.01
252.265	604.79
252.495	605.41
252.725	605.64
252.954	605.5
253.184	604.84
253.413	602.95
253.643	601.99
253.873	600.77
254.102	599.97
254.332	599.57
254.561	597.61
254.791	596.48
255.02	595.73
255.25	594.33
255.479	594.44
255.708	594.99
255.938	594.32
256.167	593.19
256.397	593.42
256.626	593.02
256.856	591.52
257.085	590.97
257.314	590.64
257.544	589.39
257.773	588.41
258.002	588.13
258.232	587.66
258.461	587.39
258.69	587.9
258.919	586.57
259.149	585.28
259.378	585.41
259.607	585.13
259.836	584.53
260.065	583.28
260.295	583.35
260.524	581.53
260.753	580.12
260.982	579.1
261.211	579.04
261.44	578.84
261.669	579.24
261.899	578.46
262.128	577.35
262.357	575.17
262.586	574.44
262.815	573.79
263.044	573.9
263.273	577.01
263.502	575.84
263.731	572.84
263.96	571.61
264.189	571.02
264.418	570.04
264.646	569.72
264.875	569.97
265.104	569.13
265.333	567.24
265.562	565.93
265.791	560.66
266.02	560.08
266.249	559.17
266.477	558.5
266.706	556.52
266.935	554.3
267.164	553.53
267.393	553.15
267.621	552.66
267.85	551.7
268.079	551.15
268.307	551.33
268.536	551.93
268.765	553.1
268.993	551.19
269.222	550.84
269.451	551.04
269.679	550.32
269.908	548.95
270.137	548.9
270.365	549.21
270.594	549.06
270.822	549.52
271.051	548.26
271.279	547.97
271.508	549.02
271.736	550.44
271.965	551.52
272.193	551.86
272.422	552.95
272.65	552.84
272.879	552.19
273.107	552.37
273.336	551.57
273.564	550.64
273.792	549.9
274.021	549.5
274.249	547.72
274.477	545.21
274.706	543.19
274.934	541.64
275.162	540.06
275.391	540.88
275.619	537.68
275.847	536.77
276.075	536.21
276.304	533.57
276.532	533.21
276.76	532.46
276.988	532.77
277.216	532.64
277.445	531.52
277.673	530.55
277.901	528.75
278.129	529.9
278.357	528.59
278.585	527.99
278.813	528.82
279.041	527.5
279.269	527.04
279.497	526.19
279.725	526.02
279.954	524.9
280.182	525.44
280.41	525.24
280.637	524.5
280.865	523.75
281.093	523.82
281.321	522.86
281.549	521.24
281.777	520.15
282.005	519.24
282.233	518.93
282.461	518.95
282.689	518.48
282.916	517.17
283.144	515.55
283.372	515.66
283.6	514.86
283.828	514.79
284.055	514.82
284.283	516.28
284.511	515.99
284.739	515.48
284.966	515.12
285.194	513.57
285.422	513.9
285.649	514.64
285.877	513.64
286.105	512.22
286.332	512.02
286.56	513.08
286.788	511.28
287.015	510.81
287.243	509.64
287.47	509.68
287.698	510.21
287.925	509.17
288.153	507.5
288.381	508.37
288.608	508.35
288.836	506.84
289.063	505.62
289.29	505.21
289.518	505.48
289.745	504.61
289.973	504.52
290.2	503.64
290.428	501.75
290.655	501.72
290.882	500.12
291.11	500.21
291.337	498.84
291.564	497.79
291.792	496.72
292.019	494.68
292.246	493.99
292.473	492.33
292.701	492.35
292.928	492.82
293.155	492.79
293.382	493.1
293.61	491.9
293.837	492.21
294.064	492.13
294.291	491.02
294.518	491.33
294.745	490.15
294.972	490.24
295.2	489.46
295.427	488.21
295.654	487.46
295.881	486.46
296.108	487.28
296.335	487.17
296.562	486.66
296.789	486.75
297.016	486.72
297.243	487.72
297.47	487.61
297.697	486.68
297.924	487.73
298.151	486.79
298.378	486.95
298.604	485.15
298.831	484.66
299.058	483.52
299.285	483.3
299.512	481.3
299.739	479.92
299.966	478.46
300.192	477.9
300.419	476.88
300.646	476.5
300.873	474.19
301.099	474.64
301.326	472.62
301.553	471.82
301.78	472.08
302.006	472.35
302.233	471.73
302.46	471.21
302.686	470.57
302.913	469.72
303.14	469.04
303.366	469.92
303.593	469.3
303.819	470.82
304.046	471.44
304.272	470.68
304.499	470.13
304.725	471.13
304.952	470.52
305.179	470.17
305.405	470.21
305.631	470.66
305.858	469.5
306.084	468.81
306.311	467.59
306.537	467.01
306.764	466.79
306.99	466.44
307.216	465.44
307.443	464.59
307.669	464.26
307.895	463.73
308.122	463.33
308.348	462.97
308.574	462.59
308.801	461.92
309.027	461.9
309.253	461.15
309.479	461.77
309.706	461.52
309.932	462.02
310.158	461.52
310.384	460.82
310.61	461.1
310.837	460.82
311.063	460.93
311.289	460.86
311.515	461.1
311.741	459.75
311.967	459.22
312.193	459.02
312.419	458.84
312.645	459.24
312.871	460.66
313.097	460.66
313.323	461.15
313.549	461.01
313.775	462.17
314.001	462.06
314.227	464.06
314.453	464.48
314.679	464.93
314.905	465.28
315.131	465.1
315.357	464.97
315.583	463.79
315.809	464.62
316.034	465.13
316.26	464.12
316.486	463.79
316.712	463.57
316.938	463.92
317.163	464.44
317.389	465.01
317.615	466.1
317.841	465.66
318.066	467.24
318.292	467.42
318.518	468.53
318.743	470.5
318.969	470.1
319.195	471.68
319.42	471.7
319.646	471.02
319.872	472.04
320.097	472.28
320.323	473.41
320.548	474.24
320.774	475.12
320.999	475.02
321.225	474.9
321.45	478.13
321.676	478.15
321.901	480.19
322.127	482.21
322.352	483.99
322.578	486.04
322.803	488.84
323.029	490.62
323.254	492.32
323.479	495.12
323.705	498.13
323.93	498.9
324.155	500.73
324.381	501.84
324.606	504.35
324.831	506.84
325.057	507.55
325.282	508.13
325.507	509.75
325.732	512.02
325.958	513.01
326.183	515.1
326.408	517.52
326.633	521.01
326.858	523.86
327.084	526.97
327.309	527.86
327.534	531.52
327.759	534.72
327.984	538.77
328.209	541.75
328.434	545.1
328.659	547.77
328.884	552.44
329.109	553.95
329.334	557.62
329.559	560.66
329.784	564.01
330.009	567.21
330.234	570.68
330.459	571.97
330.684	576.22
330.909	579.01
331.134	581.37
331.359	583.22
331.584	587.3
331.809	590.86
332.034	594.46
332.259	599.84
332.483	604.53
332.708	608.17
332.933	614.02
333.158	616.68
333.383	623.37
333.607	630.59
333.832	634.81
334.057	640.72
334.282	645.95
334.506	652.24
334.731	656.72
334.956	662.7
335.18	669.21
335.405	674.68
335.63	682.37
335.854	687.06
336.079	691.57
336.303	699.19
336.528	705.73
336.753	711.06
336.977	716.72
337.202	722.95
337.426	728.68
337.651	735.88
337.875	741.97
338.1	747.95
338.324	754.68
338.549	761.04
338.773	766.57
338.997	772.9
339.222	779.53
339.446	786.28
339.671	794.7
339.895	800.33
340.119	806.42
340.344	813.7
340.568	820.81
340.792	828.41
341.017	836.88
341.241	845.53
341.465	853.73
341.689	862.33
341.914	869.64
342.138	876.44
342.362	887.97
342.586	897.15
342.811	906.84
343.035	915.86
343.259	924.3
343.483	934.15
343.707	942.41
343.931	952.73
344.155	962.17
344.38	971.72
344.604	982.37
344.828	990.04
345.052	997.95
345.276	1006.24
345.5	1014.88
345.724	1024.5
345.948	1031.88
346.172	1042.48
346.396	1051.28
346.62	1063.95
346.844	1074.44
347.068	1084.1
347.292	1094.37
347.515	1106.04
347.739	1119.72
347.963	1129.57
348.187	1140.19
348.411	1152.21
348.635	1160.84
348.859	1170.57
349.082	1179.13
349.306	1190.35
349.53	1202.79
349.754	1214.3
349.977	1224.95
350.201	1232.21
350.425	1245.32
350.649	1257.59
350.872	1269.73
351.096	1283.02
351.32	1295.7
351.543	1306.92
351.767	1317.21
351.99	1326.68
352.214	1335.88
352.438	1346.97
352.661	1359.46
352.885	1371.86
353.108	1382.46
353.332	1393.5
353.555	1403.15
353.779	1414.44
354.002	1425.52
354.226	1437.77
354.449	1450.79
354.673	1463.84
354.896	1477.04
355.12	1489.01
355.343	1498.13
355.566	1510.39
355.79	1522.33
356.013	1537.92
356.237	1549.95
356.46	1562.66
356.683	1574.17
356.907	1586.08
357.13	1600.01
357.353	1612.37
357.576	1624.32
357.8	1637.99
358.023	1650.04
358.246	1663.13
358.469	1676.1
358.693	1687.95
358.916	1702.52
359.139	1717.59
359.362	1730.99
359.585	1742.81
359.808	1756.41
360.031	1770.75
360.255	1784.46
360.478	1799.75
360.701	1812.02
360.924	1825.84
361.147	1838.86
361.37	1850.44
361.593	1863.97
361.816	1876.55
362.039	1890.12
362.262	1902.01
362.485	1916.81
362.708	1930.1
362.931	1942.17
363.154	1956.39
363.377	1968.5
363.599	1983.28
363.822	1999.08
364.045	2013.21
364.268	2027.84
364.491	2042.64
364.714	2058.06
364.936	2070.79
365.159	2086.82
365.382	2100.59
365.605	2116.73
365.828	2133.08
366.05	2147.01
366.273	2160.33
366.496	2173.39
366.718	2189.73
366.941	2206.41
367.164	2222.92
367.386	2239.53
367.609	2255.08
367.832	2273.5
368.054	2287.9
368.277	2303.22
368.5	2320.15
368.722	2335.88
368.945	2352.9
369.167	2368.72
369.39	2384.73
369.612	2399.46
369.835	2414.72
370.057	2431.06
370.28	2445.53
370.502	2462.81
370.725	2479.21
370.947	2498.08
371.169	2514.88
371.392	2534.24
371.614	2550.84
371.837	2568.46
372.059	2588.13
372.281	2606.53
372.504	2623.88
372.726	2644.37
372.948	2662.61
373.171	2678.82
373.393	2694.28
373.615	2713.57
373.837	2730.1
374.06	2748.57
374.282	2766.88
374.504	2783.06
374.726	2802.33
374.948	2819.72
375.17	2836.82
375.393	2857.37
375.615	2874.57
375.837	2897.3
376.059	2916.37
376.281	2936.28
376.503	2954.75
376.725	2972.21
376.947	2989.01
377.169	3008.59
377.391	3028.9
377.613	3048.95
377.835	3069.39
378.057	3093.37
378.279	3113.59
378.501	3135.08
378.723	3156.66
378.945	3179.42
379.167	3202.44
379.389	3229.21
379.611	3253.88
379.833	3277.86
380.054	3298.01
380.276	3322.08
380.498	3344.59
380.72	3368.26
380.942	3393.97
381.163	3420.24
381.385	3444.44
381.607	3470.57
381.829	3495.79
382.05	3517.86
382.272	3543.44
382.494	3574.21
382.716	3599.08
382.937	3626.33
383.159	3649.01
383.381	3677.37
383.602	3702.72
383.824	3730.97
384.045	3759.84
384.267	3786.73
384.488	3814.22
384.71	3844.22
384.932	3870.13
385.153	3895.75
385.375	3923.01
385.596	3952.24
385.818	3980.1
386.039	4006.82
386.261	4033.24
386.482	4058.32
386.703	4084.66
386.925	4112.48
387.146	4138.48
387.368	4167.28
387.589	4193.75
387.81	4223.92
388.032	4255.32
388.253	4280.88
388.474	4311.55
388.696	4342.79
388.917	4374.5
389.138	4404.21
389.359	4435.32
389.581	4463.17
389.802	4494.84
390.023	4526.12
390.244	4555.33
390.465	4584.93
390.687	4614.92
390.908	4643.72
391.129	4674.04
391.35	4702.86
391.571	4733.48
391.792	4763.48
392.013	4796.3
392.234	4823.7
392.455	4856.84
392.677	4889.92
392.898	4916.42
393.119	4948.17
393.34	4978.32
393.561	5008.62
393.782	5041.21
394.003	5074.73
394.223	5108.44
394.444	5140.32
394.665	5178.52
394.886	5212.3
395.107	5243.32
395.328	5283.04
395.549	5316.01
395.77	5354.5
395.99	5392.59
396.211	5425.72
396.432	5461.12
396.653	5494.61
396.874	5530.5
397.094	5560.42
397.315	5594.28
397.536	5630.72
397.757	5662.01
397.977	5699.21
398.198	5732.13
398.419	5763.66
398.639	5803.46
398.86	5838.97
399.081	5872.19
399.301	5907.44
399.522	5941.82
399.742	5979.52
399.963	6013.64
400.184	6050.26
400.404	6087.86
400.625	6122.12
400.845	6157.77
401.066	6189.52
401.286	6223.57
401.507	6261.82
401.727	6296.02
401.948	6335.9
402.168	6370.37
402.388	6406.3
402.609	6439.9
402.829	6471.48
403.05	6505.68
403.27	6542.88
403.49	6576.1
403.711	6611.66
403.931	6647.37
404.151	6683.41
404.372	6716.37
404.592	6749.35
404.812	6782.9
405.032	6818.41
405.253	6852.33
405.473	6889.15
405.693	6920.24
405.913	6955.93
406.133	6990.12
406.353	7028.9
406.574	7066.04
406.794	7100.62
407.014	7140.9
407.234	7176.46
407.454	7212.21
407.674	7249.73
407.894	7289.42
408.114	7328.13
408.334	7364.62
408.554	7405.44
408.774	7443.68
408.994	7478.81
409.214	7513.86
409.434	7547.79
409.654	7591.73
409.874	7632.79
410.094	7674.9
410.314	7710.59
410.534	7751.04
410.754	7790.68
410.974	7826.44
411.193	7859.44
411.413	7901.9
411.633	7946.9
411.853	7986.93
412.073	8020.04
412.292	8054.68
412.512	8090.37
412.732	8133.62
412.952	8172.22
413.171	8212.52
413.391	8250.21
413.611	8294.19
413.831	8335.02
414.05	8373.72
414.27	8416.41
414.489	8461.66
414.709	8512.53
414.929	8559.39
415.148	8598.39
415.368	8642.93
415.587	8689.75
415.807	8738.42
416.026	8777.55
416.246	8817.9
416.465	8865.22
416.685	8910.97
416.904	8957.72
417.124	8996.57
417.343	9034.06
417.563	9082.37
417.782	9123.37
418.002	9164.32
418.221	9201.22
418.44	9245.72
418.66	9288.75
418.879	9329.01
419.098	9366.26
419.318	9408.1
419.537	9458.82
419.756	9503.84
419.976	9542.61
420.195	9587.75
420.414	9627.46
420.633	9675.35
420.853	9719.81
421.072	9766.5
421.291	9808.13
421.51	9849.95
421.729	9894.35
421.948	9929.42
422.168	9973.55
422.387	10018.3
422.606	10063.97
422.825	10115.32
423.044	10158.24
423.263	10204.86
423.482	10247.5
423.701	10294.81
423.92	10341.66
424.139	10382.13
424.358	10429.13
424.577	10471.24
424.796	10514.39
425.015	10559.37
425.234	10598.1
425.453	10647.92
425.672	10687.93
425.891	10732.46
426.11	10778.48
426.328	10827.75
426.547	10874.97
426.766	10919.72
426.985	10966.7
427.204	11015.93
427.422	11058.95
427.641	11111.19
427.86	11157.77
428.079	11215.73
428.297	11264.82
428.516	11312.24
428.735	11361.75
428.954	11412.57
429.172	11463.06
429.391	11517.64
429.61	11562.13
429.828	11610.75
430.047	11657.32
430.265	11702.28
430.484	11745.3
430.703	11793.7
430.921	11836.46
431.14	11880.33
431.358	11921.32
431.577	11969.95
431.795	12016.19
432.014	12071.32
432.232	12124.32
432.451	12174.62
432.669	12223.19
432.887	12269.22
433.106	12317.06
433.324	12371.15
433.543	12420.19
433.761	12469.39
433.979	12512.28
434.198	12560.24
434.416	12607.64
434.634	12650.41
434.853	12694.95
435.071	12744.72
435.289	12790.22
435.507	12838.68
435.726	12878.92
435.944	12920.77
436.162	12966.48
436.38	13015.84
436.598	13060.13
436.817	13100.97
437.035	13148.12
437.253	13195.02
437.471	13240.24
437.689	13286.61
437.907	13331.75
438.125	13388.1
438.343	13438.37
438.561	13491.13
438.78	13540.35
438.998	13594.33
439.216	13644.02
439.434	13690.77
439.652	13739.04
439.869	13783.52
440.087	13836.92
440.305	13884.59
440.523	13929.26
440.741	13978.37
440.959	14027.04
441.177	14073.39
441.395	14117.33
441.613	14165.61
441.831	14214.28
442.048	14261.61
442.266	14309.53
442.484	14349.1
442.702	14399.48
442.919	14447.64
443.137	14498.39
443.355	14549.84
443.573	14598.48
443.79	14643.12
444.008	14689.88
444.226	14737.06
444.443	14777.22
444.661	14830.22
444.879	14880.75
445.096	14932.19
445.314	14982.01
445.532	15027.75
445.749	15075.7
445.967	15129.73
446.184	15177.92
446.402	15226.73
446.619	15275.01
446.837	15336.26
447.054	15387.1
447.272	15435.17
447.489	15480.59
447.707	15526.39
447.924	15577.37
448.141	15619.99
448.359	15665.06
448.576	15715.99
448.794	15767.32
449.011	15818.3
449.228	15862.55
449.446	15902.61
449.663	15950.39
449.88	15995.5
450.098	16045.33
450.315	16094.04
450.532	16140.13
450.749	16187.33
450.967	16240.06
451.184	16284.44
451.401	16328.64
451.618	16369.15
451.835	16417.52
452.052	16467.79
452.27	16518.9
452.487	16565.68
452.704	16610.88
452.921	16659.93
453.138	16700.35
453.355	16743.73
453.572	16799.28
453.789	16848.84
454.006	16908.37
454.223	16960.13
454.44	17006.53
454.657	17054.44
454.874	17100.48
455.091	17152.79
455.308	17196.41
455.525	17252.17
455.742	17302.04
455.959	17337.68
456.176	17387.52
456.393	17435.1
456.609	17480.95
456.826	17533.72
457.043	17577.41
457.26	17624.73
457.477	17666.77
457.693	17714.7
457.91	17763.22
458.127	17806.73
458.344	17859.97
458.56	17905.61
458.777	17941.15
458.994	17978.55
459.21	18017.99
459.427	18058.68
459.644	18097.55
459.86	18127.15
460.077	18163.81
460.294	18196.7
460.51	18234.04
460.727	18266.97
460.943	18301.28
461.16	18338.73
461.376	18384.97
461.593	18419.22
461.809	18454.28
462.026	18493.86
462.242	18543.88
462.459	18581.93
462.675	18626.81
462.892	18664.33
463.108	18702.5
463.324	18740.84
463.541	18780.35
463.757	18818.3
463.974	18869.72
464.19	18910.35
464.406	18952.64
464.623	18999.26
464.839	19056.57
465.055	19098.06
465.271	19146.9
465.488	19198.99
465.704	19247.55
465.92	19297.95
466.136	19353.61
466.353	19393.41
466.569	19452.41
466.785	19506.81
467.001	19555.53
467.217	19604.01
467.433	19655.9
467.649	19714.21
467.865	19767.66
468.082	19829.75
468.298	19886.62
468.514	19943.64
468.73	20009.64
468.946	20068.24
469.162	20133.22
469.378	20194.84
469.594	20254.28
469.81	20315.44
470.026	20371.17
470.242	20432.37
470.457	20499.28
470.673	20563.79
470.889	20634.84
471.105	20695.64
471.321	20761.82
471.537	20832.79
471.753	20900.77
471.968	20972.12
472.184	21048.21
472.4	21129.12
472.616	21202.79
472.832	21275.28
473.047	21355.61
473.263	21424.66
473.479	21504.01
473.694	21578.9
473.91	21647.57
474.126	21723.77
474.341	21804.99
474.557	21870.5
474.773	21937.02
474.988	22007.52
475.204	22084.92
475.42	22154.57
475.635	22224.21
475.851	22295.52
476.066	22366.62
476.282	22434.32
476.497	22504.19
476.713	22569.15
476.928	22652.5
477.144	22725.52
477.359	22801.86
477.575	22857.35
477.79	22924.88
478.005	22986.41
478.221	23043.12
478.436	23110.01
478.651	23173.66
478.867	23233.57
479.082	23292.73
479.297	23341.42
479.513	23390.57
479.728	23436.39
479.943	23488.32
480.159	23539.68
480.374	23595.92
480.589	23648.92
480.804	23695.41
481.019	23745.84
481.235	23796.82
481.45	23847.92
481.665	23896.86
481.88	23955.82
482.095	24012.61
482.31	24071.61
482.525	24130.66
482.741	24182.35
482.956	24238.06
483.171	24274.41
483.386	24317.13
483.601	24364.72
483.816	24400.06
484.031	24443.21
484.246	24475.93
484.461	24512.92
484.676	24555.99
484.891	24595.7
485.105	24635.17
485.32	24675.28
485.535	24731.22
485.75	24773.41
485.965	24818.1
486.18	24865.9
486.395	24919.92
486.609	24968.57
486.824	25025.35
487.039	25069.39
487.254	25101.82
487.469	25148.46
487.683	25192.08
487.898	25231.01
488.113	25274.32
488.327	25308.04
488.542	25350.97
488.757	25376.28
488.972	25422.61
489.186	25451.53
489.401	25483.21
489.615	25527.01
489.83	25551.3
490.045	25585.02
490.259	25616.59
490.474	25653.7
490.688	25692.35
490.903	25729.21
491.117	25764.9
491.332	25790.92
491.546	25826.15
491.761	25858.52
491.975	25885.41
492.19	25923.19
492.404	25952.15
492.618	25981.84
492.833	26015.17
493.047	26032.93
493.262	26059.08
493.476	26086.7
493.69	26114.17
493.905	26138.9
494.119	26159.44
494.333	26190.68
494.547	26217.7
494.762	26244.28
494.976	26270.1
495.19	26295.64
495.404	26332.1
495.619	26360.59
495.833	26391.61
496.047	26411.44
496.261	26432.08
496.475	26449.06
496.689	26458.08
496.903	26467.39
497.117	26463.82
497.332	26467.59
497.546	26447.99
497.76	26442.84
497.974	26430.28
498.188	26419.77
498.402	26407.82
498.616	26395.82
498.83	26385.92
499.044	26381.59
499.258	26380.22
499.472	26385.93
499.685	26390.01
499.899	26402.52
500.113	26409.02
500.327	26416.9
500.541	26421.88
500.755	26443.92
500.969	26457.41
501.183	26482.19
501.396	26496.9
501.61	26513.08
501.824	26531.15
502.038	26554.39
502.251	26578.62
502.465	26601.75
502.679	26617.46
502.892	26647.82
503.106	26664.55
503.32	26684.75
503.533	26702.53
503.747	26719.48
503.961	26737.13
504.174	26760.79
504.388	26781.62
504.602	26819.28
504.815	26840.95
505.029	26886.53
505.242	26929.59
505.456	26973.26
505.669	27029.17
505.883	27081.32
506.096	27132.72
506.31	27193.37
506.523	27248.01
506.736	27303.72
506.95	27359.5
507.163	27418.3
507.377	27475.84
507.59	27523.55
507.803	27577.44
508.017	27628.77
508.23	27689.24
508.443	27760.1
508.657	27823.53
508.87	27898.08
509.083	27971.77
509.296	28040.42
509.51	28122.48
509.723	28190.1
509.936	28277.21
510.149	28367.82
510.363	28461.99
510.576	28546.73
510.789	28644.06
511.002	28742.5
511.215	28830.37
511.428	28926.55
511.641	29025.95
511.854	29120.68
512.067	29226.21
512.28	29335.42
512.493	29436.28
512.707	29535.68
512.92	29643.06
513.132	29731.32
513.345	29823.95
513.558	29933.97
513.771	30039.12
513.984	30153.39
514.197	30270.21
514.41	30383.42
514.623	30487.22
514.836	30592.1
515.049	30696.93
515.262	30805.73
515.474	30914.12
515.687	31018.52
515.9	31117.88
516.113	31220.75
516.325	31303.64
516.538	31395.24
516.751	31476.53
516.964	31557.79
517.176	31652.68
517.389	31744.28
517.602	31823.88
517.814	31910.64
518.027	31997.68
518.24	32082.9
518.452	32168.81
518.665	32257.72
518.877	32336.68
519.09	32418.81
519.303	32495.35
519.515	32565.19
519.728	32632.28
519.94	32710.88
520.153	32780.5
520.365	32838.72
520.578	32907.75
520.79	32966.15
521.002	33024.26
521.215	33076.28
521.427	33136.19
521.64	33191.81
521.852	33239.01
522.064	33294.44
522.277	33336.04
522.489	33382.17
522.701	33434.81
522.914	33480.77
523.126	33527.37
523.338	33570.32
523.551	33621.92
523.763	33672.62
523.975	33716.17
524.187	33772.9
524.399	33814.84
524.612	33874.39
524.824	33929.37
525.036	33988.21
525.248	34028.66
525.46	34077.88
525.672	34127.19
525.884	34165.55
526.096	34201.22
526.308	34241.62
526.521	34281.9
526.733	34314.72
526.945	34343.01
527.157	34368.41
527.369	34396.12
527.581	34433.17
527.793	34453.97
528.004	34472.02
528.216	34506.1
528.428	34544.88
528.64	34575.33
528.852	34600.84
529.064	34630.72
529.276	34657.81
529.488	34689.3
529.699	34707.32
529.911	34728.82
530.123	34763.39
530.335	34803.02
530.547	34836.41
530.758	34857.1
530.97	34899.42
531.182	34932.19
531.393	34975.04
531.605	35003.81
531.817	35040.26
532.029	35090.22
532.24	35131.68
532.452	35153.15
532.663	35172.5
532.875	35188.52
533.087	35221.82
533.298	35236.75
533.51	35253.32
533.721	35272.33
533.933	35292.72
534.144	35312.21
534.356	35308.62
534.567	35325.32
534.779	35355.32
534.99	35388.01
535.202	35415.5
535.413	35425.66
535.624	35440.92
535.836	35460.01
536.047	35479.46
536.259	35489.5
536.47	35501.17
536.681	35529.73
536.893	35543.57
537.104	35559.41
537.315	35568.22
537.526	35582.92
537.738	35596.93
537.949	35609.66
538.16	35627.1
538.371	35637.17
538.582	35667.28
538.794	35680.06
539.005	35698.08
539.216	35715.93
539.427	35727.19
539.638	35744.17
539.849	35764.32
540.06	35784.5
540.272	35812.48
540.483	35837.88
540.694	35857.12
540.905	35869.1
541.116	35891.75
541.327	35904.84
541.538	35917.79
541.749	35932.62
541.96	35948.01
542.17	35956.15
542.381	35970.48
542.592	35974.77
542.803	35974.04
543.014	35980.33
543.225	35987.5
543.436	36000.28
543.647	36005.5
543.857	36015.3
544.068	36027.13
544.279	36029.79
544.49	36036.22
544.701	36040.15
544.911	36048.46
545.122	36061.55
545.333	36079.88
545.543	36098.01
545.754	36099.97
545.965	36115.77
546.175	36123.61
546.386	36138.92
546.597	36154.28
546.807	36177.32
547.018	36195.33
547.229	36208.1
547.439	36212.72
547.65	36212.59
547.86	36218.24
548.071	36229.42
548.281	36232.66
548.492	36231.46
548.702	36233.73
548.913	36235.55
549.123	36224.9
549.333	36230.06
549.544	36238.59
549.754	36249.37
549.965	36262.42
550.175	36271.39
550.385	36288.75
550.596	36304.66
550.806	36329.72
551.016	36333.81
551.227	36348.52
551.437	36366.9
551.647	36383.84
551.857	36394.73
552.068	36416.17
552.278	36416.13
552.488	36420.55
552.698	36427.02
552.908	36433.48
553.119	36429.77
553.329	36436.84
553.539	36436.97
553.749	36437.92
553.959	36421.75
554.169	36420.33
554.379	36414.13
554.589	36420.9
554.799	36427.28
555.009	36430.06
555.219	36429.86
555.429	36434.1
555.639	36428.82
555.849	36434.22
556.059	36438.24
556.269	36459.77
556.479	36454.06
556.689	36452.15
556.899	36464.82
557.109	36463.04
557.319	36458.08
557.528	36460.39
557.738	36462.52
557.948	36470.72
558.158	36463.04
558.368	36454.08
558.577	36441.3
558.787	36448.73
558.997	36445.59
559.207	36429.24
559.416	36414.26
559.626	36403.48
559.836	36391.93
560.045	36386.39
560.255	36381.59
560.465	36382.75
560.674	36388.37
560.884	36386.26
561.093	36387.41
561.303	36380.22
561.512	36387.52
561.722	36398.26
561.932	36400.19
562.141	36398.7
562.351	36392.99
562.56	36398.81
562.769	36399.88
562.979	36401.02
563.188	36405.21
563.398	36403.37
563.607	36405.35
563.817	36398.21
564.026	36389.52
564.235	36384.81
564.445	36390.28
564.654	36384.86
564.863	36372.08
565.073	36371.22
565.282	36373.99
565.491	36358.06
565.7	36349.75
565.91	36344.39
566.119	36340.52
566.328	36339.28
566.537	36334.61
566.746	36320.64
566.956	36317.28
567.165	36310.57
567.374	36301.72
567.583	36276.72
567.792	36271.57
568.001	36253.17
568.21	36233.62
568.419	36209.12
568.628	36179.97
568.837	36162.61
569.046	36134.53
569.255	36108.5
569.464	36086.92
569.673	36055.99
569.882	36037.64
570.091	36021.57
570.3	35998.99
570.509	35987.64
570.718	35969.66
570.927	35962.42
571.135	35957.62
571.344	35952.24
571.553	35953.82
571.762	35949.35
571.971	35953.66
572.18	35949.46
572.388	35926.46
572.597	35920.21
572.806	35907.82
573.014	35899.9
573.223	35881.24
573.432	35853.62
573.641	35836.75
573.849	35802.97
574.058	35777.35
574.266	35750.32
574.475	35729.02
574.684	35719.77
574.892	35704.95
575.101	35692.5
575.309	35676.52
575.518	35664.19
575.726	35656.3
575.935	35637.44
576.143	35628.7
576.352	35619.17
576.56	35598.15
576.769	35579.61
576.977	35566.06
577.186	35553.1
577.394	35534.01
577.602	35517.04
577.811	35496.42
578.019	35472.5
578.228	35466.42
578.436	35458.79
578.644	35441.72
578.852	35426.46
579.061	35408.28
579.269	35377.55
579.477	35354.24
579.685	35335.64
579.894	35315.92
580.102	35305.3
580.31	35295.88
580.518	35273.95
580.726	35251.59
580.935	35227.53
581.143	35212.77
581.351	35192.1
581.559	35179.97
581.767	35150.3
581.975	35126.61
582.183	35104.33
582.391	35077.02
582.599	35049.39
582.807	35028.15
583.015	35011.52
583.223	35001.24
583.431	34987.22
583.639	34970.08
583.847	34960.55
584.055	34946.93
584.263	34928.24
584.471	34904.01
584.678	34878.3
584.886	34865.06
585.094	34850.39
585.302	34824.33
585.51	34796.22
585.718	34763.68
585.925	34749.06
586.133	34717.41
586.341	34707.19
586.549	34684.3
586.756	34673.26
586.964	34666.48
587.172	34642.21
587.379	34617.59
587.587	34601.72
587.795	34591.35
588.002	34576.84
588.21	34555.15
588.417	34526.26
588.625	34496.26
588.833	34471.13
589.04	34444.61
589.248	34425.17
589.455	34398.37
589.663	34385.12
589.87	34363.06
590.078	34331.92
590.285	34307.55
590.492	34275.32
590.7	34256.28
590.907	34228.17
591.115	34206.37
591.322	34178.97
591.529	34142.08
591.737	34116.21
591.944	34083.19
592.151	34058.32
592.359	34026.61
592.566	34002.95
592.773	33978.1
592.981	33956.92
593.188	33934.92
593.395	33910.04
593.602	33891.61
593.809	33869.41
594.017	33848.15
594.224	33820.33
594.431	33782.32
594.638	33754.21
594.845	33720.12
595.052	33682.12
595.259	33661.95
595.466	33642.02
595.673	33620.1
595.88	33600.46
596.088	33580.59
596.295	33551.13
596.502	33525.06
596.709	33511.06
596.915	33490.22
597.122	33468.64
597.329	33461.32
597.536	33435.77
597.743	33410.82
597.95	33386.77
598.157	33354.32
598.364	33319.22
598.571	33283.39
598.777	33243.32
598.984	33194.01
599.191	33145.46
599.398	33101.46
599.605	33056.75
599.811	33005.55
600.018	32943.24
600.225	32886.92
600.431	32836.86
600.638	32803.5
600.845	32774.77
601.052	32748.01
601.258	32712.1
601.465	32673.86
601.671	32623.99
601.878	32548.99
602.085	32464.82
602.291	32380.44
602.498	32268.15
602.704	32128.81
602.911	31973.24
603.117	31788.01
603.324	31584.42
603.53	31370.15
603.737	31142.46
603.943	30899.02
604.15	30657.92
604.356	30407.32
604.562	30152.82
604.769	29898.61
604.975	29640.79
605.181	29371.1
605.388	29105.86
605.594	28836.06
605.8	28569.19
606.007	28301.64
606.213	28038.55
606.419	27766.39
606.625	27491.28
606.832	27218.55
607.038	26949.7
607.244	26679.13
607.45	26403.77
607.656	26129.86
607.863	25855.55
608.069	25571.5
608.275	25294.59
608.481	25017.92
608.687	24744.02
608.893	24463.28
609.099	24178.81
609.305	23892.17
609.511	23611.7
609.717	23324.57
609.923	23028.15
610.129	22733.81
610.335	22435.52
610.541	22135.92
610.747	21825.15
610.953	21509.22
611.159	21207.42
611.365	20890.17
611.571	20572.59
611.776	20244.81
611.982	19925.62
612.188	19612.57
612.394	19291.79
612.6	18970.06
612.806	18639.92
613.011	18314.19
613.217	17995.12
613.423	17668.01
613.628	17347.52
613.834	17025.44
614.04	16713.73
614.246	16408.19
614.451	16104.75
614.657	15807.17
614.862	15523.72
615.068	15246.13
615.274	14972.75
615.479	14701.01
615.685	14435.59
615.89	14178.52
616.096	13922.19
616.301	13663.04
616.507	13401.7
616.712	13139.93
616.918	12876.95
617.123	12607.64
617.329	12334.19
617.534	12059.37
617.74	11780.46
617.945	11502.22
618.15	11206.06
618.356	10739.62
618.561	9881.88
618.766	8837.68
618.972	7762.88
619.177	6715.66
619.382	5698.12
619.588	4704.88
619.793	4111.25
619.998	3419.29
620.203	2586.51
620.408	1576.19
620.614	585.63
