Data from test1_MAYP1115451__50__10-14-54-681.txt Node

Date: Wed Jun 12 10:14:54 MDT 2024
User: Modes Lab
Spectrometer: MAYP111545
Trigger mode: 0
Integration Time (sec): 8.000000E-3
Scans to average: 5
Electric dark correction enabled: true
Nonlinearity correction enabled: false
Boxcar width: 5
XAxis mode: Wavelengths
Number of Pixels in Spectrum: 2068
>>>>>Begin Spectral Data<<<<<
165.214	164.57
165.449	163.98
165.683	173.04
165.918	181.76
166.152	188.49
166.387	193.3
166.621	125.03
166.856	163.67
167.09	182.12
167.325	205.38
167.559	221.72
167.794	236.7
168.028	243.52
168.263	244.41
168.497	244.39
168.732	244.92
168.966	246.74
169.2	248.74
169.435	250.27
169.669	252.61
169.903	255.18
170.138	256.83
170.372	256.7
170.606	258.54
170.841	260.54
171.075	262.78
171.309	265.05
171.544	266.03
171.778	267.81
172.012	269.61
172.246	271.36
172.48	272.67
172.715	274.1
172.949	276.94
173.183	279.58
173.417	281.81
173.651	282.65
173.885	283.45
174.119	284.7
174.354	285.05
174.588	285.27
174.822	285.5
175.056	284.27
175.29	284.34
175.524	283.83
175.758	284.38
175.992	283.81
176.226	284.54
176.46	285.03
176.694	285.43
176.928	286.27
177.162	287.5
177.396	288.3
177.63	290.54
177.864	291.3
178.097	292.87
178.331	293.18
178.565	294.41
178.799	295.1
179.033	295.67
179.267	296.39
179.5	297.03
179.734	297.67
179.968	298.48
180.202	299.18
180.436	299.76
180.669	300.74
180.903	301.21
181.137	301.87
181.371	302.79
181.604	303.9
181.838	304.99
182.072	305.54
182.305	306.43
182.539	307.25
182.772	307.98
183.006	309.99
183.24	309.94
183.473	314.39
183.707	314.52
183.94	315.72
184.174	316.87
184.408	318.03
184.641	319.87
184.875	320.67
185.108	322.01
185.342	323.54
185.575	324.54
185.808	326.41
186.042	325.28
186.275	327.52
186.509	328.72
186.742	330.47
186.976	331.99
187.209	332.58
187.442	334.9
187.676	335.34
187.909	336.28
188.142	338.23
188.376	339.74
188.609	341.28
188.842	342.48
189.076	343.3
189.309	343.79
189.542	344.38
189.775	346.25
190.009	347.19
190.242	349.25
190.475	351.88
190.708	353.19
190.941	354.78
191.174	356.18
191.408	359.1
191.641	360.56
191.874	362.68
192.107	365.76
192.34	367.16
192.573	369.43
192.806	371.21
193.039	372.72
193.272	373.83
193.505	375.05
193.738	376.54
193.971	376.88
194.204	379.19
194.437	380.52
194.67	381.96
194.903	384.08
195.136	385.96
195.369	388.12
195.602	389.3
195.835	391.25
196.068	394.45
196.301	396.16
196.533	399.3
196.766	400.61
196.999	403.47
197.232	405.67
197.465	407.23
197.698	408.88
197.93	411.18
198.163	412.92
198.396	415.88
198.629	417.19
198.861	419.54
199.094	420.76
199.327	424.25
199.559	426.52
199.792	428.63
200.025	431.39
200.257	432.9
200.49	434.98
200.723	438.32
200.955	439.36
201.188	440.81
201.42	444.34
201.653	446.83
201.886	449.14
202.118	450.16
202.351	451.98
202.583	455.07
202.816	458.72
203.048	461.25
203.281	462.38
203.513	465.27
203.745	468.28
203.978	470.01
204.21	472.78
204.443	474.28
204.675	477.45
204.907	480.14
205.14	481.61
205.372	483.05
205.605	484.61
205.837	487.98
206.069	491.01
206.302	492.98
206.534	494.52
206.766	494.9
206.998	497.19
207.231	499.87
207.463	501.78
207.695	505.72
207.927	507.87
208.159	511.67
208.392	513.67
208.624	514.92
208.856	516.78
209.088	519.99
209.32	523.28
209.552	525.96
209.784	527.52
210.017	528.78
210.249	529.54
210.481	531.61
210.713	532.08
210.945	533.88
211.177	534.87
211.409	537.03
211.641	537.03
211.873	539.18
212.105	540.98
212.337	542.72
212.569	544.45
212.801	546.41
213.033	547.7
213.264	550.01
213.496	552.36
213.728	556.34
213.96	558.78
214.192	561.28
214.424	562.92
214.656	564.68
214.887	567.38
215.119	570.7
215.351	572.67
215.583	574.99
215.815	576.01
216.046	577.67
216.278	578.83
216.51	580.58
216.741	583.5
216.973	585.14
217.205	586.83
217.436	587.76
217.668	589.9
217.9	591.48
218.131	591.96
218.363	594.67
218.595	596.07
218.826	597.38
219.058	598.92
219.289	598.72
219.521	599.59
219.752	600.12
219.984	600.72
220.215	600.36
220.447	601.39
220.678	604.25
220.91	606.05
221.141	606.67
221.373	608.56
221.604	610.34
221.836	612.72
222.067	615.81
222.298	618.38
222.53	619.61
222.761	621.7
222.993	622.39
223.224	624.14
223.455	623.88
223.686	625.28
223.918	624.14
224.149	625.25
224.38	625.34
224.612	624.81
224.843	624.87
225.074	625.59
225.305	625.18
225.536	627.08
225.768	626.38
225.999	627.74
226.23	629.23
226.461	630.58
226.692	630.88
226.923	632.08
227.155	633.85
227.386	635.1
227.617	635.54
227.848	638.05
228.079	637.59
228.31	638.52
228.541	638.61
228.772	637.74
229.003	638.34
229.234	638.52
229.465	636.54
229.696	636.23
229.927	635.18
230.158	636.43
230.389	634.74
230.62	635.36
230.85	634.07
231.081	633.45
231.312	633.54
231.543	634.48
231.774	634.38
232.005	637.01
232.236	636.39
232.466	638.16
232.697	637.18
232.928	638.28
233.159	636.28
233.389	637.7
233.62	638.03
233.851	638.25
234.082	637.54
234.312	636.92
234.543	635.7
234.774	636.18
235.004	634.27
235.235	634.99
235.466	634.16
235.696	634.88
235.927	635.14
236.157	635.07
236.388	634.05
236.618	635.27
236.849	635.88
237.08	635.68
237.31	634.45
237.541	634.9
237.771	633.63
238.002	634.67
238.232	634.88
238.463	634.43
238.693	635.23
238.923	635.67
239.154	633.96
239.384	632.99
239.615	632.98
239.845	632.12
240.075	630.94
240.306	631.01
240.536	628.83
240.766	627.21
240.997	626.48
241.227	626.56
241.457	625.48
241.687	625.78
241.918	626.1
242.148	626.23
242.378	626.3
242.608	626.27
242.839	625.87
243.069	626.01
243.299	626.61
243.529	627.67
243.759	626.47
243.989	625.92
244.22	625.45
244.45	624.21
244.68	623.83
244.91	624.08
245.14	623.32
245.37	623.16
245.6	623.5
245.83	623.16
246.06	622.18
246.29	621.61
246.52	621.34
246.75	620.1
246.98	620.19
247.21	617.61
247.44	616.61
247.67	615.3
247.9	615.99
248.13	614.48
248.359	614.98
248.589	613.58
248.819	612.68
249.049	612.08
249.279	611.79
249.509	610.28
249.738	611.23
249.968	610.99
250.198	611.05
250.428	608.41
250.657	607.14
250.887	606.23
251.117	606.65
251.347	606.03
251.576	606.68
251.806	606.32
252.036	605.67
252.265	605.58
252.495	604.68
252.725	604.38
252.954	604.03
253.184	604.27
253.413	603.14
253.643	601.18
253.873	600.19
254.102	598.27
254.332	597.45
254.561	597.14
254.791	595.61
255.02	594.98
255.25	594.45
255.479	594.16
255.708	594.36
255.938	593.21
256.167	591.79
256.397	592.01
256.626	590.12
256.856	589.9
257.085	590.48
257.314	590.65
257.544	590.85
257.773	590.98
258.002	590.67
258.232	589.18
258.461	590.1
258.69	590.19
258.919	587.87
259.149	588.98
259.378	587.56
259.607	587.23
259.836	586.08
260.065	584.27
260.295	582.88
260.524	582.21
260.753	581.38
260.982	579.96
261.211	580.47
261.44	580.25
261.669	579.58
261.899	578.61
262.128	576.92
262.357	575.79
262.586	574.87
262.815	574.45
263.044	573.25
263.273	575.76
263.502	575.19
263.731	571.94
263.96	572.72
264.189	570.74
264.418	570.27
264.646	568.39
264.875	567.83
265.104	568.67
265.333	567.27
265.562	567.21
265.791	563.74
266.02	562.34
266.249	562.45
266.477	560.58
266.706	560.03
266.935	558.98
267.164	559.47
267.393	559.41
267.621	557.54
267.85	557.68
268.079	555.99
268.307	554.98
268.536	553.78
268.765	553.92
268.993	554.23
269.222	555.07
269.451	554.83
269.679	553.76
269.908	553.59
270.137	554.23
270.365	551.98
270.594	553.34
270.822	552.81
271.051	553.41
271.279	552.94
271.508	552.81
271.736	553.38
271.965	553.63
272.193	555.07
272.422	554.23
272.65	554.01
272.879	554.99
273.107	554.25
273.336	553.98
273.564	553.48
273.792	551.25
274.021	549.61
274.249	548.16
274.477	546.52
274.706	543.63
274.934	542.25
275.162	539.98
275.391	538.61
275.619	537.12
275.847	536.39
276.075	534.79
276.304	535.79
276.532	535.96
276.76	535.12
276.988	534.32
277.216	533.48
277.445	531.94
277.673	532.32
277.901	533.14
278.129	532.25
278.357	530.28
278.585	529.88
278.813	528.76
279.041	526.16
279.269	525.5
279.497	525.27
279.725	525.38
279.954	525.07
280.182	524.08
280.41	522.81
280.637	521.47
280.865	522.63
281.093	522.18
281.321	521.78
281.549	521.65
281.777	521.39
282.005	521.88
282.233	521.45
282.461	522.5
282.689	522.27
282.916	521.48
283.144	521.27
283.372	520.39
283.6	520.32
283.828	518.14
284.055	517.59
284.283	517.96
284.511	515.9
284.739	515.12
284.966	513.3
285.194	511.92
285.422	509.9
285.649	509.83
285.877	508.25
286.105	507.72
286.332	508.41
286.56	508.87
286.788	506.25
287.015	506.61
287.243	505.52
287.47	505.12
287.698	504.16
287.925	505.23
288.153	504.5
288.381	504.48
288.608	503.03
288.836	503.08
289.063	502.08
289.29	501.85
289.518	500.45
289.745	500.1
289.973	499.58
290.2	500.28
290.428	499.3
290.655	499.1
290.882	497.54
291.11	497.38
291.337	495.99
291.564	496.52
291.792	495.85
292.019	496.27
292.246	496.61
292.473	495.74
292.701	495.58
292.928	495.78
293.155	494.1
293.382	494.83
293.61	494.18
293.837	493.5
294.064	491.88
294.291	490.54
294.518	489.59
294.745	487.59
294.972	486.5
295.2	484.9
295.427	484.19
295.654	484.47
295.881	483.28
296.108	482.79
296.335	482.59
296.562	483.03
296.789	483.7
297.016	483.16
297.243	483.43
297.47	483.39
297.697	483.78
297.924	483.03
298.151	481.87
298.378	482.01
298.604	481.52
298.831	481.14
299.058	479.19
299.285	479.18
299.512	478.27
299.739	478.16
299.966	477.78
300.192	475.96
300.419	474.28
300.646	474.72
300.873	474.63
301.099	473.92
301.326	473.47
301.553	473.19
301.78	473.19
302.006	472.48
302.233	471.41
302.46	471.59
302.686	472.23
302.913	473.36
303.14	472.74
303.366	471.5
303.593	470.58
303.819	469.87
304.046	469.14
304.272	467.87
304.499	467.92
304.725	467.34
304.952	466.18
305.179	465.05
305.405	465.99
305.631	464.5
305.858	465.68
306.084	466.85
306.311	467.27
306.537	467.63
306.764	467.45
306.99	467.67
307.216	468.45
307.443	469.01
307.669	468.1
307.895	466.59
308.122	466.83
308.348	465.87
308.574	464.16
308.801	463.94
309.027	464.72
309.253	463.5
309.479	462.67
309.706	462.59
309.932	462.9
310.158	463.39
310.384	463.23
310.61	463.3
310.837	462.41
311.063	463.01
311.289	461.79
311.515	460.3
311.741	460.9
311.967	460.43
312.193	459.16
312.419	458.27
312.645	457.78
312.871	456.81
313.097	457.47
313.323	457.85
313.549	457.25
313.775	457.94
314.001	458.79
314.227	459.07
314.453	459.63
314.679	459.94
314.905	460.56
315.131	460.83
315.357	461.96
315.583	461.67
315.809	462.58
316.034	463.34
316.26	464.68
316.486	464.74
316.712	464.98
316.938	464.74
317.163	465.07
317.389	465.43
317.615	466.14
317.841	466.81
318.066	468.05
318.292	467.67
318.518	467.56
318.743	466.94
318.969	467.18
319.195	467.88
319.42	469.43
319.646	471.68
319.872	472.54
320.097	474.03
320.323	473.87
320.548	474.1
320.774	476.32
320.999	479.16
321.225	481.3
321.45	482.5
321.676	483.07
321.901	483.63
322.127	484.38
322.352	485.81
322.578	487.74
322.803	490.54
323.029	492.61
323.254	492.43
323.479	493.32
323.705	494.18
323.93	495.52
324.155	499.34
324.381	502.1
324.606	503.74
324.831	505.88
325.057	507.47
325.282	508.76
325.507	510.48
325.732	514.21
325.958	516.59
326.183	518.76
326.408	520.76
326.633	523.23
326.858	525.39
327.084	527.5
327.309	529.74
327.534	531.92
327.759	533.88
327.984	537.72
328.209	539.45
328.434	543.59
328.659	547.88
328.884	551.19
329.109	552.72
329.334	556.27
329.559	559.67
329.784	563.58
330.009	567.41
330.234	571.07
330.459	574.61
330.684	579.23
330.909	581.58
331.134	584.59
331.359	588.76
331.584	593.39
331.809	597.34
332.034	601.45
332.259	604.36
332.483	607.79
332.708	613.05
332.933	617.65
333.158	622.25
333.383	628.12
333.607	633.38
333.832	638.54
334.057	643.12
334.282	648.96
334.506	655.7
334.731	660.99
334.956	667.54
335.18	672.87
335.405	677.45
335.63	683.03
335.854	687.9
336.079	693.18
336.303	698.43
336.528	704.01
336.753	708.23
336.977	712.92
337.202	721.21
337.426	728.48
337.651	734.94
337.875	740.68
338.1	746.39
338.324	752.05
338.549	758.83
338.773	767.68
338.997	774.81
339.222	783.39
339.446	790.5
339.671	797.72
339.895	805.16
340.119	812.3
340.344	820.63
340.568	830.79
340.792	838.96
341.017	847.05
341.241	853.28
341.465	862.08
341.689	869.05
341.914	876.05
342.138	883.92
342.362	890.98
342.586	898.85
342.811	907.59
343.035	914.41
343.259	922.48
343.483	932.63
343.707	942.28
343.931	951.81
344.155	961.05
344.38	970.01
344.604	978.3
344.828	987.43
345.052	997.5
345.276	1006.63
345.5	1016.28
345.724	1026.39
345.948	1034.48
346.172	1043.65
346.396	1052.07
346.62	1064.58
346.844	1076.99
347.068	1087.14
347.292	1097.59
347.515	1107.83
347.739	1118.79
347.963	1129.19
348.187	1140.59
348.411	1150.5
348.635	1160.88
348.859	1170.07
349.082	1177.83
349.306	1187.48
349.53	1198.38
349.754	1209.52
349.977	1221.68
350.201	1231.92
350.425	1242.52
350.649	1254.03
350.872	1265.81
351.096	1277.16
351.32	1291.08
351.543	1301.39
351.767	1312.68
351.99	1323.88
352.214	1333.18
352.438	1342.72
352.661	1355.43
352.885	1365.61
353.108	1375.08
353.332	1386.83
353.555	1397.85
353.779	1407.99
354.002	1422.81
354.226	1434.08
354.449	1445.5
354.673	1458.99
354.896	1473.43
355.12	1485.07
355.343	1499.23
355.566	1513.45
355.79	1524.81
356.013	1539.78
356.237	1552.85
356.46	1564.08
356.683	1575.76
356.907	1588.43
357.13	1601.39
357.353	1612.56
357.576	1624.14
357.8	1637.56
358.023	1650.63
358.246	1663.07
358.469	1674.32
358.693	1688.14
358.916	1701.14
359.139	1716.59
359.362	1729.61
359.585	1743.76
359.808	1756.88
360.031	1770.94
360.255	1783.78
360.478	1796.87
360.701	1811.34
360.924	1823.63
361.147	1836.38
361.37	1851.72
361.593	1864.32
361.816	1877.94
362.039	1890.23
362.262	1903.99
362.485	1917.61
362.708	1930.3
362.931	1943.01
363.154	1958.1
363.377	1974.32
363.599	1988.65
363.822	2001.28
364.045	2016.27
364.268	2030.98
364.491	2045.25
364.714	2058.92
364.936	2073.12
365.159	2086.58
365.382	2100.76
365.605	2114.32
365.828	2128.98
366.05	2141.47
366.273	2156.38
366.496	2171.36
366.718	2187.27
366.941	2203.14
367.164	2217.85
367.386	2233.74
367.609	2250.5
367.832	2267.74
368.054	2285.28
368.277	2301.47
368.5	2318.32
368.722	2334.48
368.945	2350.41
369.167	2367.41
369.39	2384.39
369.612	2401.34
369.835	2419.21
370.057	2436.94
370.28	2451.99
370.502	2469.39
370.725	2485.1
370.947	2503.67
371.169	2521.45
371.392	2540.03
371.614	2551.5
371.837	2566.92
372.059	2584.88
372.281	2599.25
372.504	2616.68
372.726	2634.32
372.948	2648.43
373.171	2667.32
373.393	2683.7
373.615	2700.25
373.837	2715.98
374.06	2738.72
374.282	2758.79
374.504	2776.34
374.726	2795.65
374.948	2814.25
375.17	2832.83
375.393	2854.67
375.615	2873.94
375.837	2894.94
376.059	2918.32
376.281	2938.9
376.503	2955.68
376.725	2976.16
376.947	2997.99
377.169	3018.28
377.391	3041.9
377.613	3063.7
377.835	3082.65
378.057	3102.38
378.279	3125.34
378.501	3142.03
378.723	3164.21
378.945	3187.94
379.167	3208.45
379.389	3230.36
379.611	3255.65
379.833	3273.63
380.054	3296.68
380.276	3320.28
380.498	3345.45
380.72	3366.16
380.942	3392.47
381.163	3416.5
381.385	3441.32
381.607	3466.81
381.829	3493.05
382.05	3515.23
382.272	3540.48
382.494	3567.58
382.716	3594.14
382.937	3619.67
383.159	3647.3
383.381	3673.58
383.602	3701.36
383.824	3730.07
384.045	3757.14
384.267	3784.67
384.488	3816.38
384.71	3845.25
384.932	3869.83
385.153	3899.7
385.375	3927.12
385.596	3957.39
385.818	3982.92
386.039	4006.43
386.261	4033.12
386.482	4059.25
386.703	4084.98
386.925	4111.21
387.146	4139.9
387.368	4166.1
387.589	4190.41
387.81	4217.3
388.032	4242.36
388.253	4271.36
388.474	4305.1
388.696	4337.03
388.917	4366.23
389.138	4392.45
389.359	4420.07
389.581	4449.52
389.802	4482.88
390.023	4515.01
390.244	4544.76
390.465	4576.52
390.687	4609.3
390.908	4635.92
391.129	4663.85
391.35	4698.41
391.571	4734.36
391.792	4765.5
392.013	4799.05
392.234	4830.32
392.455	4862.68
392.677	4893.88
392.898	4925.07
393.119	4957.1
393.34	4991.94
393.561	5023.76
393.782	5054.98
394.003	5085.99
394.223	5123.18
394.444	5151.14
394.665	5184.47
394.886	5215.92
395.107	5251.99
395.328	5285.16
395.549	5320.32
395.77	5355.12
395.99	5391.16
396.211	5424.68
396.432	5456.61
396.653	5487.21
396.874	5522.67
397.094	5555.3
397.315	5591.41
397.536	5625.16
397.757	5658.96
397.977	5694.01
398.198	5730.07
398.419	5764.25
398.639	5801.81
398.86	5840.23
399.081	5875.48
399.301	5916.07
399.522	5952.45
399.742	5988.5
399.963	6024.47
400.184	6062.36
400.404	6092.63
400.625	6125.19
400.845	6158.88
401.066	6189.7
401.286	6223.19
401.507	6257.81
401.727	6288.5
401.948	6321.9
402.168	6355.18
402.388	6388.76
402.609	6422.98
402.829	6461.34
403.05	6496.54
403.27	6531.16
403.49	6568.5
403.711	6607.52
403.931	6644.85
404.151	6681.78
404.372	6721.47
404.592	6756.96
404.812	6793.43
405.032	6825.18
405.253	6857.68
405.473	6893.83
405.693	6931.54
405.913	6964.92
406.133	6997.1
406.353	7037.65
406.574	7071.65
406.794	7108.63
407.014	7145.67
407.234	7180.76
407.454	7221.98
407.674	7261.83
407.894	7298.63
408.114	7332.67
408.334	7371.65
408.554	7411.85
408.774	7442.9
408.994	7482.38
409.214	7517.88
409.434	7557.59
409.654	7595.78
409.874	7634.25
410.094	7668.03
410.314	7702.43
410.534	7739.99
410.754	7775.43
410.974	7811.76
411.193	7853.52
411.413	7892.85
411.633	7931.16
411.853	7969.96
412.073	8010.3
412.292	8046.3
412.512	8087.14
412.732	8130.3
412.952	8173.28
413.171	8212.78
413.391	8253.23
413.611	8292.05
413.831	8332.52
414.05	8376.7
414.27	8418.98
414.489	8458.41
414.709	8499.83
414.929	8545.88
415.148	8590.48
415.368	8632.39
415.587	8679.43
415.807	8723.96
416.026	8769.16
416.246	8811.34
416.465	8845.76
416.685	8889.28
416.904	8936.76
417.124	8981.87
417.343	9024.88
417.563	9068.47
417.782	9109.5
418.002	9151.16
418.221	9199.96
418.44	9242.39
418.66	9287.16
418.879	9334.65
419.098	9376.18
419.318	9417.67
419.537	9466.23
419.756	9510.3
419.976	9551.01
420.195	9599.88
420.414	9644.28
420.633	9680.14
420.853	9720.88
421.072	9765.39
421.291	9814.52
421.51	9858.48
421.729	9901.39
421.948	9942.07
422.168	9982.83
422.387	10025.19
422.606	10065.52
422.825	10109.72
423.044	10151.76
423.263	10197.65
423.482	10237.92
423.701	10288.03
423.92	10333.12
424.139	10381.9
424.358	10420.78
424.577	10466.27
424.796	10515.65
425.015	10563.34
425.234	10608.61
425.453	10659.79
425.672	10705.19
425.891	10753.28
426.11	10788.54
426.328	10836.25
426.547	10879.05
426.766	10930.9
426.985	10977.47
427.204	11020.47
427.422	11067.94
427.641	11116.72
427.86	11157.81
428.079	11208.81
428.297	11255.47
428.516	11303.21
428.735	11347.48
428.954	11396.88
429.172	11447.99
429.391	11499.25
429.61	11547.27
429.828	11590.74
430.047	11640.45
430.265	11691.3
430.484	11733.61
430.703	11779.47
430.921	11833.01
431.14	11877.19
431.358	11925.23
431.577	11966.96
431.795	12014.99
432.014	12067.39
432.232	12124.45
432.451	12169.27
432.669	12215.14
432.887	12261.34
433.106	12309.32
433.324	12351.36
433.543	12399.58
433.761	12448.92
433.979	12498.7
434.198	12547.52
434.416	12595.08
434.634	12635.72
434.853	12680.96
435.071	12727.88
435.289	12774.48
435.507	12821.19
435.726	12863.39
435.944	12913.96
436.162	12959.52
436.38	13007.65
436.598	13051.39
436.817	13095.08
437.035	13142.52
437.253	13191.27
437.471	13242.96
437.689	13292.39
437.907	13343.7
438.125	13394.14
438.343	13440.68
438.561	13490.14
438.78	13532.32
438.998	13577.48
439.216	13624.68
439.434	13668.58
439.652	13714.25
439.869	13758.85
440.087	13805.74
440.305	13849.63
440.523	13897.81
440.741	13942.01
440.959	13981.76
441.177	14036.87
441.395	14086.36
441.613	14134.32
441.831	14187.61
442.048	14241.14
442.266	14288.3
442.484	14341.59
442.702	14392.07
442.919	14444.83
443.137	14496.34
443.355	14551.32
443.573	14596.45
443.79	14647.9
444.008	14697.5
444.226	14740.25
444.443	14791.56
444.661	14837.25
444.879	14881.65
445.096	14931.58
445.314	14982.08
445.532	15030.43
445.749	15081.79
445.967	15127.59
446.184	15175.47
446.402	15229.03
446.619	15279.38
446.837	15318.3
447.054	15375.23
447.272	15423.56
447.489	15466.87
447.707	15518.83
447.924	15569.81
448.141	15614.87
448.359	15657.63
448.576	15706.74
448.794	15749.98
449.011	15799.9
449.228	15853.79
449.446	15897.36
449.663	15943.54
449.88	15996.87
450.098	16041.81
450.315	16089.79
450.532	16142.05
450.749	16197.32
450.967	16245.1
451.184	16294.96
451.401	16342.67
451.618	16387.87
451.835	16437.47
452.052	16493.16
452.27	16545.85
452.487	16589.78
452.704	16632.54
452.921	16679.18
453.138	16723.27
453.355	16767.61
453.572	16818.76
453.789	16866.68
454.006	16919.07
454.223	16969.1
454.44	17018.72
454.657	17061.83
454.874	17108.03
455.091	17157.76
455.308	17199.88
455.525	17256.28
455.742	17301.83
455.959	17346.83
456.176	17397.18
456.393	17438.27
456.609	17479.65
456.826	17520.39
457.043	17564.01
457.26	17610.27
457.477	17657.36
457.693	17701.87
457.91	17737.3
458.127	17786.05
458.344	17830.68
458.56	17869.43
458.777	17913.05
458.994	17961.38
459.21	17996.38
459.427	18034.45
459.644	18072.94
459.86	18103.47
460.077	18139.67
460.294	18181.47
460.51	18217.83
460.727	18249.88
460.943	18288.68
461.16	18325.81
461.376	18360.81
461.593	18403.41
461.809	18443.83
462.026	18483.21
462.242	18530.78
462.459	18572.21
462.675	18615.23
462.892	18648.9
463.108	18691.96
463.324	18739.56
463.541	18783.47
463.757	18820.74
463.974	18860.9
464.19	18906.45
464.406	18960.32
464.623	19004.19
464.839	19055.47
465.055	19104.59
465.271	19161.5
465.488	19207.43
465.704	19249.21
465.92	19299.27
466.136	19348.47
466.353	19402.1
466.569	19450.14
466.785	19494.98
467.001	19550.27
467.217	19604.63
467.433	19656.65
467.649	19710.03
467.865	19773.36
468.082	19835.48
468.298	19894.65
468.514	19965.99
468.73	20033.72
468.946	20103.32
469.162	20168.63
469.378	20235.25
469.594	20295.72
469.81	20350.47
470.026	20416.5
470.242	20477.65
470.457	20539.59
470.673	20600.96
470.889	20660.16
471.105	20722.32
471.321	20785.19
471.537	20851.68
471.753	20907.08
471.968	20983.07
472.184	21063.41
472.4	21135.07
472.616	21199.03
472.832	21271.43
473.047	21352.56
473.263	21425.27
473.479	21498.27
473.694	21572.45
473.91	21641.41
474.126	21723.99
474.341	21790.78
474.557	21857.98
474.773	21919.38
474.988	21997.87
475.204	22075.59
475.42	22145.07
475.635	22223.21
475.851	22295.19
476.066	22359.94
476.282	22432.58
476.497	22499.85
476.713	22567.16
476.928	22639.61
477.144	22717.96
477.359	22780.7
477.575	22840.79
477.79	22900.1
478.005	22960.38
478.221	23020.85
478.436	23091.67
478.651	23154.16
478.867	23216.47
479.082	23281.7
479.297	23345.1
479.513	23398.56
479.728	23456.76
479.943	23507.88
480.159	23564.21
480.374	23617.81
480.589	23675.38
480.804	23722.63
481.019	23775.03
481.235	23827.78
481.45	23868.23
481.665	23915.94
481.88	23965.5
482.095	24014.41
482.31	24073.07
482.525	24122.67
482.741	24174.87
482.956	24216.21
483.171	24265.81
483.386	24310.47
483.601	24363.41
483.816	24409.83
484.031	24450.92
484.246	24500.34
484.461	24541.96
484.676	24581.23
484.891	24624.56
485.105	24668.38
485.32	24714.92
485.535	24758.14
485.75	24802.54
485.965	24837.72
486.18	24887.03
486.395	24921.88
486.609	24959.45
486.824	25012.61
487.039	25052.94
487.254	25093.94
487.469	25127.25
487.683	25174.18
487.898	25206.52
488.113	25247.92
488.327	25281.54
488.542	25314.76
488.757	25358.92
488.972	25394.81
489.186	25429.99
489.401	25462.36
489.615	25494.79
489.83	25532.68
490.045	25556.32
490.259	25596.03
490.474	25620.79
490.688	25660.43
490.903	25687.27
491.117	25723.08
491.332	25757.68
491.546	25784.92
491.761	25818.47
491.975	25851.99
492.19	25878.99
492.404	25910.1
492.618	25941.3
492.833	25977.34
493.047	26005.92
493.262	26035.7
493.476	26058.88
493.69	26088.68
493.905	26117.3
494.119	26145.43
494.333	26177.94
494.547	26205.79
494.762	26243.65
494.976	26278.39
495.19	26304.12
495.404	26326.81
495.619	26359.25
495.833	26388.99
496.047	26409.19
496.261	26429.1
496.475	26450.34
496.689	26455.38
496.903	26468.94
497.117	26462.61
497.332	26455.88
497.546	26455.14
497.76	26442.74
497.974	26438.32
498.188	26427.52
498.402	26415.74
498.616	26408.28
498.83	26398.32
499.044	26389.56
499.258	26382.65
499.472	26394.88
499.685	26400.52
499.899	26409.94
500.113	26425.19
500.327	26433.36
500.541	26448.87
500.755	26463.05
500.969	26473.98
501.183	26492.43
501.396	26517.92
501.61	26538.03
501.824	26552.9
502.038	26572.94
502.251	26588.39
502.465	26606.07
502.679	26628.74
502.892	26643.61
503.106	26664.36
503.32	26688.54
503.533	26705.47
503.747	26728.54
503.961	26750.74
504.174	26771.68
504.388	26791.61
504.602	26826.3
504.815	26864.47
505.029	26905.36
505.242	26953.16
505.456	27008.48
505.669	27051.08
505.883	27099.58
506.096	27155.54
506.31	27204.96
506.523	27259.07
506.736	27315.92
506.95	27367.72
507.163	27416.52
507.377	27467.63
507.59	27517.3
507.803	27560.48
508.017	27621.19
508.23	27685.52
508.443	27744.63
508.657	27810.96
508.87	27873.18
509.083	27946.12
509.296	28015.21
509.51	28101.96
509.723	28173.76
509.936	28254.23
510.149	28338.7
510.363	28423.3
510.576	28512.18
510.789	28605.88
511.002	28706.68
511.215	28806.78
511.428	28907.38
511.641	29014.23
511.854	29112.38
512.067	29218.78
512.28	29325.45
512.493	29437.88
512.707	29550.28
512.92	29654.32
513.132	29750.96
513.345	29844.19
513.558	29952.9
513.771	30048.98
513.984	30154.59
514.197	30267.32
514.41	30375.94
514.623	30480.98
514.836	30585.1
515.049	30685.34
515.262	30788.03
515.474	30900.78
515.687	31003.58
515.9	31108.88
516.113	31214.23
516.325	31309.76
516.538	31396.34
516.751	31486.38
516.964	31577.76
517.176	31670.68
517.389	31755.32
517.602	31843.03
517.814	31923.05
518.027	32012.5
518.24	32082.68
518.452	32154.47
518.665	32229.28
518.877	32304.07
519.09	32385.52
519.303	32451.94
519.515	32517.83
519.728	32586.85
519.94	32661.81
520.153	32725.68
520.365	32793.12
520.578	32872.28
520.79	32942.79
521.002	33011.61
521.215	33079.23
521.427	33133.98
521.64	33198.67
521.852	33255.59
522.064	33307.88
522.277	33359.83
522.489	33411.78
522.701	33474.16
522.914	33511.39
523.126	33559.52
523.338	33603.12
523.551	33639.41
523.763	33680.72
523.975	33736.68
524.187	33787.79
524.399	33841.32
524.612	33889.92
524.824	33936.72
525.036	33976.41
525.248	34018.12
525.46	34069.67
525.672	34114.25
525.884	34166.12
526.096	34212.08
526.308	34240.87
526.521	34278.05
526.733	34327.39
526.945	34354.76
527.157	34397.12
527.369	34424.83
527.581	34463.72
527.793	34487.28
528.004	34513.05
528.216	34529.88
528.428	34567.03
528.64	34595.34
528.852	34613.98
529.064	34627.63
529.276	34647.65
529.488	34668.1
529.699	34694.12
529.911	34717.47
530.123	34749.59
530.335	34785.92
530.547	34828.43
530.758	34847.47
530.97	34875.85
531.182	34915.03
531.393	34951.78
531.605	35001.19
531.817	35035.38
532.029	35062.99
532.24	35095.45
532.452	35114.87
532.663	35136.05
532.875	35155.59
533.087	35192.74
533.298	35227.14
533.51	35242.08
533.721	35258.07
533.933	35269.92
534.144	35286.85
534.356	35309.3
534.567	35330.48
534.779	35351.9
534.99	35371.68
535.202	35394.72
535.413	35406.81
535.624	35428.27
535.836	35456.65
536.047	35483.5
536.259	35500.59
536.47	35521.05
536.681	35536.36
536.893	35549.9
537.104	35572.41
537.315	35586.32
537.526	35601.72
537.738	35617.99
537.949	35627.78
538.16	35636.87
538.371	35646.65
538.582	35667.34
538.794	35685.52
539.005	35708.52
539.216	35729.23
539.427	35746.7
539.638	35768.43
539.849	35781.12
540.06	35796.18
540.272	35810.67
540.483	35829.39
540.694	35841.5
540.905	35859.1
541.116	35877.78
541.327	35884.52
541.538	35897.47
541.749	35908.39
541.96	35908.65
542.17	35918.19
542.381	35938.34
542.592	35952.18
542.803	35963.63
543.014	35980.83
543.225	35987.1
543.436	35987.43
543.647	35996.85
543.857	36005.12
544.068	36013.83
544.279	36033.48
544.49	36045.81
544.701	36043.96
544.911	36050.39
545.122	36058.67
545.333	36057.99
545.543	36066.5
545.754	36077.47
545.965	36095.14
546.175	36106.41
546.386	36122.12
546.597	36132.78
546.807	36155.45
547.018	36160.99
547.229	36172.99
547.439	36186.14
547.65	36199.5
547.86	36213.76
548.071	36216.3
548.281	36214.21
548.492	36210.61
548.702	36215.7
548.913	36221.05
549.123	36216.78
549.333	36236.54
549.544	36241.74
549.754	36240.39
549.965	36247.9
550.175	36264.5
550.385	36285.7
550.596	36308.88
550.806	36329.07
551.016	36331.85
551.227	36350.7
551.437	36366.45
551.647	36364.1
551.857	36372.65
552.068	36381.76
552.278	36392.67
552.488	36393.81
552.698	36395.03
552.908	36404.79
553.119	36421.38
553.329	36439.58
553.539	36439.47
553.749	36434.78
553.959	36443.05
554.169	36443.14
554.379	36457.18
554.589	36458.34
554.799	36452.38
555.009	36460.16
555.219	36457.65
555.429	36451.1
555.639	36442.81
555.849	36444.7
556.059	36448.68
556.269	36451.07
556.479	36461.79
556.689	36462.87
556.899	36465.5
557.109	36465.65
557.319	36463.19
557.528	36467.68
557.738	36469.92
557.948	36473.39
558.158	36465.88
558.368	36465.74
558.577	36463.98
558.787	36459.27
558.997	36453.32
559.207	36444.72
559.416	36437.76
559.626	36431.18
559.836	36412.85
560.045	36404.79
560.255	36397.01
560.465	36398.38
560.674	36399.65
560.884	36398.56
561.093	36392.08
561.303	36384.65
561.512	36387.34
561.722	36384.47
561.932	36388.65
562.141	36390.87
562.351	36387.12
562.56	36386.36
562.769	36383.1
562.979	36379.12
563.188	36375.83
563.398	36379.12
563.607	36384.07
563.817	36385.41
564.026	36396.27
564.235	36391.7
564.445	36394.48
564.654	36396.21
564.863	36397.9
565.073	36400.18
565.282	36395.38
565.491	36385.56
565.7	36375.85
565.91	36366.45
566.119	36362.34
566.328	36341.61
566.537	36325.72
566.746	36310.45
566.956	36300.54
567.165	36285.03
567.374	36269.61
567.583	36260.38
567.792	36261.54
568.001	36247.01
568.21	36231.65
568.419	36203.38
568.628	36182.96
568.837	36157.28
569.046	36131.74
569.255	36100.92
569.464	36077.65
569.673	36047.43
569.882	36029.48
570.091	35995.79
570.3	35984.21
570.509	35957.98
570.718	35949.96
570.927	35943.61
571.135	35943.61
571.344	35934.68
571.553	35940.05
571.762	35938.28
571.971	35940.16
572.18	35926.47
572.388	35926.03
572.597	35901.76
572.806	35890.96
573.014	35874.9
573.223	35861.05
573.432	35835.56
573.641	35818.48
573.849	35792.76
574.058	35767.43
574.266	35745.39
574.475	35724.56
574.684	35707.61
574.892	35703.41
575.101	35698.92
575.309	35690.21
575.518	35670.39
575.726	35665.98
575.935	35651.99
576.143	35638.28
576.352	35623.79
576.56	35602.85
576.769	35593.1
576.977	35573.38
577.186	35548.59
577.394	35534.76
577.602	35511.05
577.811	35505.07
578.019	35490.68
578.228	35480.99
578.436	35468.5
578.644	35455.38
578.852	35439.63
579.061	35418.65
579.269	35407.92
579.477	35380.27
579.685	35355.61
579.894	35340.79
580.102	35313.7
580.31	35289.36
580.518	35269.88
580.726	35257.74
580.935	35242.63
581.143	35231.74
581.351	35209.45
581.559	35174.28
581.767	35167.74
581.975	35143.58
582.183	35122.3
582.391	35105.98
582.599	35078.98
582.807	35060.79
583.015	35034.01
583.223	35008.94
583.431	34987.08
583.639	34976.52
583.847	34962.52
584.055	34941.72
584.263	34927.38
584.471	34902.19
584.678	34870.5
584.886	34862.81
585.094	34840.16
585.302	34814.83
585.51	34796.48
585.718	34771.52
585.925	34750.12
586.133	34729.19
586.341	34715.52
586.549	34699.59
586.756	34686.76
586.964	34674.92
587.172	34643.78
587.379	34618.88
587.587	34593.99
587.795	34569.3
588.002	34549.54
588.21	34520.23
588.417	34496.08
588.625	34462.96
588.833	34431.3
589.04	34399.34
589.248	34372.79
589.455	34357.65
589.663	34344.7
589.87	34327.72
590.078	34307.03
590.285	34291.25
590.492	34265.1
590.7	34246.81
590.907	34219.99
591.115	34198.03
591.322	34176.96
591.529	34156.58
591.737	34131.45
591.944	34103.7
592.151	34077.36
592.359	34047.25
592.566	34011.59
592.773	33981.63
592.981	33950.34
593.188	33924.7
593.395	33898.65
593.602	33883.78
593.809	33861.88
594.017	33840.47
594.224	33810.32
594.431	33783.96
594.638	33762.16
594.845	33735.12
595.052	33708.52
595.259	33690.96
595.466	33667.59
595.673	33647.25
595.88	33616.5
596.088	33593.7
596.295	33568.99
596.502	33543.65
596.709	33515.47
596.915	33496.05
597.122	33488.81
597.329	33484.03
597.536	33455.39
597.743	33435.03
597.95	33413.32
598.157	33390.58
598.364	33350.28
598.571	33300.63
598.777	33250.68
598.984	33210.23
599.191	33154.83
599.398	33098.27
599.605	33041.28
599.811	32989.9
600.018	32938.34
600.225	32880.21
600.431	32824.08
600.638	32784.25
600.845	32763.14
601.052	32742.28
601.258	32712.39
601.465	32678.79
601.671	32622.98
601.878	32551.96
602.085	32478.7
602.291	32381.78
602.498	32281.74
602.704	32146.23
602.911	31995.72
603.117	31805.25
603.324	31596.87
603.53	31376.67
603.737	31143.72
603.943	30911.28
604.15	30669.98
604.356	30417.25
604.562	30170.65
604.769	29896.52
604.975	29631.34
605.181	29366.98
605.388	29106.96
605.594	28845.43
605.8	28576.99
606.007	28311.14
606.213	28038.92
606.419	27767.72
606.625	27495.21
606.832	27212.99
607.038	26945.48
607.244	26683.65
607.45	26406.78
607.656	26136.3
607.863	25865.03
608.069	25581.67
608.275	25298.48
608.481	25014.63
608.687	24737.19
608.893	24456.48
609.099	24174.27
609.305	23889.34
609.511	23596.12
609.717	23299.34
609.923	23005.56
610.129	22712.76
610.335	22418.19
610.541	22121.72
610.747	21829.18
610.953	21529.3
611.159	21226.98
611.365	20916.47
611.571	20600.47
611.776	20285.28
611.982	19967.78
612.188	19647.05
612.394	19325.21
612.6	19009.96
612.806	18686.23
613.011	18353.25
613.217	18020.48
613.423	17690.45
613.628	17368.36
613.834	17051.83
614.04	16732.67
614.246	16428.78
614.451	16125.59
614.657	15824.36
614.862	15533.21
615.068	15252.47
615.274	14976.47
615.479	14704.87
615.685	14443.58
615.89	14189.58
616.096	13924.47
616.301	13672.38
616.507	13412.34
616.712	13144.9
616.918	12879.03
617.123	12610.81
617.329	12337.81
617.534	12060.45
617.74	11783.45
617.945	11495.76
618.15	11193.78
618.356	10730.47
618.561	9871.08
618.766	8832.25
618.972	7761.81
619.177	6717.63
619.382	5695.1
619.588	4700.76
619.793	4109.97
619.998	3417.67
620.203	2587.54
620.408	1580.7
620.614	590.43
