Data from test1_MAYP1115451__62__10-14-58-590.txt Node

Date: Wed Jun 12 10:14:58 MDT 2024
User: Modes Lab
Spectrometer: MAYP111545
Trigger mode: 0
Integration Time (sec): 8.000000E-3
Scans to average: 5
Electric dark correction enabled: true
Nonlinearity correction enabled: false
Boxcar width: 5
XAxis mode: Wavelengths
Number of Pixels in Spectrum: 2068
>>>>>Begin Spectral Data<<<<<
165.214	165.23
165.449	165.99
165.683	175.13
165.918	183.42
166.152	189.23
166.387	194.35
166.621	126.3
166.856	164.79
167.09	184.3
167.325	208.04
167.559	224.5
167.794	238.62
168.028	245.02
168.263	245.86
168.497	245.88
168.732	247.95
168.966	248.39
169.2	250.28
169.435	252.01
169.669	252.64
169.903	254.19
170.138	255.08
170.372	256.44
170.606	258.44
170.841	260.21
171.075	262.24
171.309	262.39
171.544	264.28
171.778	265.52
172.012	267.02
172.246	268.48
172.48	270.5
172.715	273.19
172.949	274.95
173.183	277.72
173.417	278.37
173.651	280.3
173.885	281.95
174.119	282.66
174.354	283.66
174.588	283.66
174.822	283.77
175.056	283.81
175.29	283.77
175.524	283.32
175.758	282.92
175.992	283.72
176.226	282.53
176.46	283.37
176.694	284.53
176.928	285.7
177.162	287.44
177.396	288.52
177.63	289.17
177.864	290.37
178.097	291.99
178.331	292.53
178.565	294.37
178.799	296.01
179.033	296.26
179.267	297.41
179.5	296.59
179.734	296.68
179.968	298.26
180.202	299.17
180.436	300.01
180.669	300.82
180.903	301.9
181.137	302.02
181.371	303.01
181.604	303.92
181.838	303.99
182.072	305.99
182.305	307.19
182.539	307.66
182.772	309.17
183.006	310.28
183.24	311.5
183.473	314.57
183.707	315.93
183.94	316.61
184.174	318.02
184.408	319.37
184.641	321.17
184.875	322.75
185.108	324.93
185.342	326.17
185.575	327.44
185.808	328.21
186.042	327.64
186.275	328.17
186.509	329.82
186.742	331.08
186.976	332.79
187.209	332.73
187.442	334.92
187.676	335.44
187.909	336.93
188.142	338.21
188.376	339.68
188.609	341.28
188.842	343.46
189.076	345.02
189.309	346.73
189.542	348.42
189.775	350.64
190.009	351.01
190.242	352.5
190.475	354.06
190.708	355.66
190.941	356.66
191.174	357.77
191.408	359.46
191.641	360.44
191.874	361.77
192.107	364.35
192.34	366.01
192.573	368.17
192.806	370.41
193.039	371.13
193.272	373.02
193.505	375.82
193.738	378.26
193.971	381.19
194.204	383.97
194.437	386.21
194.67	386.66
194.903	388.57
195.136	389.64
195.369	391.17
195.602	393.35
195.835	395.9
196.068	397.48
196.301	398.55
196.533	399.57
196.766	400.77
196.999	402.9
197.232	405.44
197.465	407.04
197.698	409.55
197.93	411.21
198.163	414.28
198.396	416.06
198.629	417.57
198.861	419.92
199.094	422.44
199.327	425.17
199.559	427.59
199.792	429.92
200.025	432.59
200.257	434.35
200.49	436.52
200.723	437.97
200.955	439.86
201.188	442.81
201.42	444.97
201.653	447.32
201.886	449.61
202.118	451.59
202.351	453.28
202.583	455.72
202.816	458.32
203.048	461.9
203.281	464.22
203.513	465.92
203.745	468.62
203.978	470.93
204.21	472.93
204.443	474.61
204.675	477.48
204.907	480.01
205.14	482.32
205.372	485.1
205.605	487.19
205.837	489.42
206.069	492.04
206.302	493.22
206.534	495.52
206.766	497.32
206.998	500.5
207.231	502.08
207.463	503.93
207.695	507.12
207.927	509.12
208.159	510.53
208.392	512.28
208.624	513.13
208.856	517.32
209.088	520.04
209.32	522.04
209.552	523.13
209.784	524.92
210.017	526.62
210.249	527.59
210.481	529.15
210.713	531.59
210.945	534.12
211.177	537.55
211.409	538.61
211.641	540.52
211.873	542.72
212.105	545.1
212.337	547.01
212.569	549.97
212.801	552.79
213.033	555.02
213.264	555.32
213.496	557.26
213.728	558.33
213.96	559.57
214.192	561.32
214.424	563.46
214.656	565.1
214.887	567.53
215.119	569.55
215.351	571.22
215.583	572.59
215.815	576.21
216.046	577.82
216.278	580.7
216.51	582.53
216.741	583.75
216.973	585.88
217.205	588.62
217.436	590.37
217.668	591.62
217.9	592.26
218.131	594.33
218.363	595.21
218.595	596.72
218.826	598.06
219.058	599.61
219.289	601.84
219.521	602.93
219.752	604.52
219.984	605.64
220.215	606.44
220.447	607.7
220.678	607.88
220.91	609.26
221.141	610.39
221.373	611.79
221.604	612.17
221.836	612.41
222.067	613.62
222.298	612.42
222.53	612.99
222.761	613.93
222.993	615.3
223.224	617.12
223.455	618.86
223.686	618.9
223.918	619.5
224.149	621.9
224.38	623.39
224.612	624.21
224.843	626.08
225.074	627.15
225.305	629.53
225.536	630.41
225.768	630.92
225.999	631.66
226.23	634.44
226.461	634.13
226.692	634.22
226.923	635.08
227.155	636.73
227.386	637.5
227.617	637.33
227.848	636.17
228.079	636.37
228.31	636.35
228.541	635.75
228.772	635.24
229.003	637.12
229.234	636.79
229.465	636.13
229.696	632.82
229.927	633.24
230.158	634.28
230.389	635.32
230.62	635.64
230.85	635.73
231.081	635.37
231.312	635.28
231.543	634.86
231.774	636.08
232.005	637.3
232.236	638.08
232.466	637.66
232.697	636.95
232.928	636.42
233.159	636.41
233.389	637.79
233.62	637.66
233.851	636.64
234.082	636.88
234.312	634.04
234.543	632.46
234.774	632.88
235.004	633.22
235.235	633.41
235.466	633.13
235.696	633.42
235.927	631.79
236.157	631.95
236.388	632.1
236.618	631.68
236.849	632.62
237.08	634.46
237.31	634.99
237.541	634.04
237.771	633.72
238.002	633.61
238.232	632.28
238.463	633.77
238.693	633.12
238.923	633.99
239.154	634.06
239.384	634.33
239.615	632.42
239.845	631.73
240.075	632.08
240.306	632.52
240.536	632.5
240.766	632.44
240.997	630.68
241.227	631.01
241.457	628.99
241.687	628.02
241.918	628.82
242.148	627.64
242.378	628.01
242.608	626.37
242.839	626.28
243.069	625.33
243.299	625.02
243.529	626.64
243.759	625.55
243.989	626.95
244.22	626.53
244.45	625.04
244.68	624.84
244.91	623.88
245.14	624.35
245.37	623.53
245.6	623.66
245.83	623.52
246.06	621.77
246.29	622.53
246.52	620.5
246.75	619.48
246.98	618.48
247.21	618.57
247.44	617.7
247.67	617.19
247.9	615.33
248.13	613.95
248.359	613.81
248.589	613.3
248.819	612.32
249.049	612.41
249.279	611.64
249.509	611.44
249.738	610.79
249.968	611.53
250.198	609.95
250.428	609.99
250.657	609.26
250.887	608.7
251.117	607.77
251.347	607.13
251.576	606.44
251.806	607.02
252.036	606.5
252.265	605.66
252.495	603.55
252.725	604.5
252.954	603.81
253.184	604.33
253.413	600.77
253.643	600.88
253.873	601.06
254.102	599.82
254.332	598.55
254.561	598.59
254.791	598.81
255.02	598.92
255.25	597.86
255.479	597.17
255.708	595.55
255.938	597.79
256.167	595.92
256.397	593.72
256.626	593.01
256.856	592.1
257.085	591.13
257.314	590.06
257.544	589.66
257.773	589.88
258.002	589.82
258.232	589.79
258.461	588.46
258.69	587.93
258.919	587.62
259.149	587.28
259.378	586.33
259.607	585.21
259.836	584.7
260.065	583.61
260.295	582.08
260.524	581.3
260.753	579.28
260.982	577.7
261.211	577.24
261.44	577.32
261.669	577.1
261.899	577.28
262.128	576.55
262.357	575.44
262.586	574.33
262.815	573.13
263.044	571.48
263.273	574.57
263.502	574.28
263.731	573.22
263.96	572.12
264.189	571.37
264.418	570.52
264.646	569.9
264.875	569.17
265.104	567.04
265.333	566.88
265.562	566.82
265.791	562.01
266.02	561.33
266.249	561.13
266.477	560.01
266.706	559.24
266.935	557.77
267.164	556.97
267.393	557.08
267.621	556.57
267.85	555.79
268.079	556.15
268.307	557.26
268.536	556.37
268.765	555.93
268.993	557.21
269.222	557.17
269.451	557.5
269.679	556.82
269.908	556.3
270.137	557.59
270.365	557.22
270.594	556.62
270.822	556.7
271.051	557.53
271.279	556.64
271.508	555.73
271.736	554.93
271.965	554.42
272.193	555.37
272.422	556.15
272.65	556.62
272.879	556.08
273.107	554.79
273.336	554.21
273.564	552.9
273.792	552.66
274.021	550.73
274.249	549.73
274.477	548.19
274.706	546.22
274.934	543.93
275.162	541.17
275.391	540.22
275.619	539.81
275.847	538.53
276.075	537.55
276.304	537.1
276.532	536.02
276.76	535.59
276.988	534.75
277.216	535.21
277.445	534.37
277.673	534.08
277.901	534.13
278.129	532.92
278.357	531.42
278.585	530.79
278.813	529.53
279.041	530.08
279.269	528.15
279.497	527.7
279.725	525.19
279.954	524.55
280.182	524.57
280.41	523.32
280.637	522.61
280.865	522.57
281.093	522.7
281.321	521.81
281.549	522.12
281.777	522.97
282.005	522.97
282.233	524.08
282.461	523.21
282.689	521.77
282.916	521.04
283.144	521.08
283.372	520.64
283.6	520.37
283.828	519.81
284.055	517.06
284.283	516.61
284.511	515.99
284.739	514.81
284.966	514.04
285.194	513.77
285.422	513.01
285.649	511.55
285.877	510.13
286.105	508.73
286.332	508.75
286.56	509.37
286.788	508.62
287.015	506.82
287.243	506.88
287.47	506.72
287.698	507.32
287.925	507.21
288.153	507.55
288.381	507.57
288.608	507.37
288.836	506.41
289.063	505.41
289.29	503.72
289.518	504.62
289.745	503.88
289.973	503.33
290.2	502.82
290.428	501.62
290.655	499.86
290.882	499.26
291.11	498.62
291.337	498.26
291.564	497.79
291.792	497.48
292.019	496.22
292.246	494.59
292.473	494.26
292.701	493.37
292.928	493.61
293.155	494.15
293.382	494.12
293.61	493.52
293.837	493.44
294.064	493.22
294.291	493.5
294.518	492.59
294.745	493.08
294.972	492.28
295.2	491.55
295.427	490.42
295.654	489.59
295.881	488.12
296.108	487.57
296.335	486.73
296.562	486.57
296.789	485.64
297.016	486.66
297.243	485.99
297.47	485.72
297.697	484.41
297.924	483.77
298.151	483.52
298.378	482.77
298.604	481.28
298.831	480.75
299.058	479.01
299.285	479.52
299.512	478.04
299.739	476.39
299.966	476.68
300.192	476.22
300.419	476.02
300.646	475.26
300.873	475.62
301.099	476.1
301.326	475.15
301.553	474.66
301.78	474.15
302.006	473.62
302.233	474.57
302.46	472.81
302.686	472.72
302.913	472.62
303.14	472.42
303.366	471.53
303.593	471.02
303.819	471.79
304.046	472.42
304.272	471.42
304.499	470.57
304.725	469.04
304.952	468.92
305.179	467.95
305.405	467.53
305.631	467.53
305.858	468.08
306.084	467.52
306.311	466.42
306.537	465.92
306.764	465.01
306.99	464.72
307.216	465.52
307.443	465.79
307.669	465.92
307.895	465.72
308.122	464.22
308.348	464.32
308.574	463.79
308.801	464.41
309.027	463.42
309.253	462.97
309.479	464.32
309.706	463.24
309.932	463.44
310.158	463.95
310.384	463.39
310.61	464.92
310.837	463.84
311.063	464.7
311.289	463.35
311.515	463.55
311.741	463.95
311.967	463.79
312.193	463.62
312.419	462.42
312.645	462.08
312.871	462.12
313.097	460.95
313.323	461.26
313.549	461.17
313.775	460.75
314.001	460.1
314.227	460.84
314.453	460.62
314.679	461.13
314.905	462.15
315.131	462.08
315.357	462.28
315.583	462.62
315.809	463.26
316.034	463.39
316.26	464.86
316.486	467.19
316.712	466.82
316.938	467.24
317.163	468.01
317.389	468.5
317.615	468.53
317.841	468.9
318.066	469.73
318.292	469.53
318.518	470.39
318.743	470.61
318.969	470.57
319.195	471.97
319.42	471.64
319.646	472.01
319.872	471.3
320.097	472.72
320.323	473.48
320.548	474.35
320.774	476.12
320.999	476.22
321.225	476.82
321.45	476.99
321.676	478.77
321.901	480.72
322.127	482.01
322.352	483.55
322.578	485.62
322.803	487.41
323.029	488.68
323.254	488.61
323.479	490.3
323.705	491.64
323.93	494.75
324.155	495.44
324.381	495.92
324.606	498.35
324.831	501.26
325.057	501.73
325.282	504.57
325.507	506.57
325.732	510.42
325.958	514.5
326.183	517.32
326.408	517.72
326.633	521.04
326.858	525.26
327.084	527.46
327.309	529.1
327.534	533.12
327.759	535.84
327.984	539.22
328.209	541.19
328.434	543.04
328.659	547.35
328.884	552.04
329.109	554.13
329.334	556.42
329.559	559.59
329.784	563.52
330.009	565.82
330.234	568.48
330.459	571.5
330.684	575.84
330.909	579.84
331.134	581.28
331.359	583.44
331.584	588.55
331.809	593.59
332.034	598.48
332.259	604.17
332.483	609.13
332.708	613.12
332.933	618.99
333.158	622.99
333.383	627.3
333.607	633.79
333.832	640.81
334.057	644.84
334.282	649.06
334.506	654.12
334.731	658.33
334.956	664.72
335.18	671.72
335.405	675.04
335.63	681.02
335.854	686.12
336.079	691.57
336.303	697.08
336.528	702.68
336.753	709.55
336.977	715.79
337.202	721.64
337.426	727.32
337.651	731.99
337.875	740.17
338.1	746.35
338.324	754.39
338.549	760.73
338.773	767.84
338.997	775.84
339.222	781.72
339.446	788.06
339.671	795.59
339.895	802.93
340.119	812.17
340.344	819.81
340.568	828.17
340.792	835.57
341.017	843.81
341.241	851.64
341.465	858.77
341.689	867.77
341.914	876.99
342.138	885.68
342.362	893.22
342.586	900.86
342.811	907.32
343.035	914.84
343.259	923.08
343.483	932.64
343.707	940.33
343.931	951.3
344.155	960.77
344.38	969.26
344.604	978.68
344.828	988.33
345.052	997.79
345.276	1008.68
345.5	1018.06
345.724	1027.44
345.948	1035.22
346.172	1044.68
346.396	1053.04
346.62	1063.5
346.844	1073.12
347.068	1081.93
347.292	1093.61
347.515	1103.1
347.739	1116.62
347.963	1128.59
348.187	1138.93
348.411	1151.57
348.635	1162.39
348.859	1172.99
349.082	1181.21
349.306	1192.52
349.53	1202.24
349.754	1211.88
349.977	1223.97
350.201	1231.99
350.425	1244.21
350.649	1256.3
350.872	1267.95
351.096	1278.81
351.32	1290.52
351.543	1303.22
351.767	1314.72
351.99	1329.02
352.214	1339.28
352.438	1350.21
352.661	1361.79
352.885	1372.64
353.108	1384.57
353.332	1394.28
353.555	1408.93
353.779	1419.17
354.002	1429.42
354.226	1440.42
354.449	1451.02
354.673	1464.68
354.896	1476.46
355.12	1487.46
355.343	1499.64
355.566	1510.86
355.79	1522.92
356.013	1534.06
356.237	1546.84
356.46	1562.22
356.683	1575.1
356.907	1588.46
357.13	1601.95
357.353	1612.86
357.576	1625.77
357.8	1636.61
358.023	1650.1
358.246	1662.82
358.469	1674.19
358.693	1688.72
358.916	1700.59
359.139	1714.46
359.362	1725.86
359.585	1739.82
359.808	1755.55
360.031	1769.92
360.255	1785.08
360.478	1798.39
360.701	1814.19
360.924	1828.5
361.147	1839.46
361.37	1854.35
361.593	1866.99
361.816	1882.04
362.039	1892.48
362.262	1906.48
362.485	1919.9
362.708	1933.42
362.931	1945.57
363.154	1958.12
363.377	1971.19
363.599	1985.82
363.822	1999.32
364.045	2014.12
364.268	2027.35
364.491	2044.75
364.714	2060.1
364.936	2076.82
365.159	2091.28
365.382	2106.62
365.605	2121.93
365.828	2139.81
366.05	2155.39
366.273	2169.86
366.496	2184.66
366.718	2200.15
366.941	2211.99
367.164	2225.88
367.386	2238.82
367.609	2254.53
367.832	2271.37
368.054	2288.62
368.277	2301.59
368.5	2319.77
368.722	2337.12
368.945	2352.12
369.167	2369.55
369.39	2386.57
369.612	2405.12
369.835	2420.39
370.057	2436.48
370.28	2452.1
370.502	2465.93
370.725	2484.12
370.947	2500.99
371.169	2517.59
371.392	2537.72
371.614	2553.82
371.837	2571.97
372.059	2586.28
372.281	2605.77
372.504	2623.35
372.726	2641.88
372.948	2660.77
373.171	2677.64
373.393	2694.93
373.615	2711.02
373.837	2727.22
374.06	2745.44
374.282	2763.37
374.504	2783.15
374.726	2800.37
374.948	2818.99
375.17	2837.75
375.393	2857.46
375.615	2878.39
375.837	2893.95
376.059	2913.97
376.281	2934.9
376.503	2954.24
376.725	2975.32
376.947	2997.57
377.169	3018.37
377.391	3038.22
377.613	3058.61
377.835	3077.61
378.057	3095.93
378.279	3120.92
378.501	3143.24
378.723	3162.48
378.945	3184.39
379.167	3206.68
379.389	3226.32
379.611	3249.92
379.833	3272.57
380.054	3295.66
380.276	3321.21
380.498	3349.1
380.72	3371.28
380.942	3395.84
381.163	3420.75
381.385	3445.17
381.607	3469.48
381.829	3495.9
382.05	3521.75
382.272	3548.81
382.494	3574.12
382.716	3598.02
382.937	3621.3
383.159	3647.48
383.381	3673.97
383.602	3703.55
383.824	3732.1
384.045	3758.62
384.267	3785.64
384.488	3812.46
384.71	3839.5
384.932	3865.12
385.153	3890.62
385.375	3916.88
385.596	3943.88
385.818	3969.95
386.039	3994.21
386.261	4021.39
386.482	4046.68
386.703	4072.22
386.925	4099.32
387.146	4127.84
387.368	4155.17
387.589	4186.04
387.81	4214.55
388.032	4245.9
388.253	4273.48
388.474	4305.84
388.696	4336.3
388.917	4367.01
389.138	4395.88
389.359	4427.39
389.581	4457.24
389.802	4492.19
390.023	4524.61
390.244	4552.39
390.465	4579.53
390.687	4610.26
390.908	4636.52
391.129	4667.9
391.35	4696.97
391.571	4729.1
391.792	4759.72
392.013	4791.73
392.234	4819.04
392.455	4849.37
392.677	4883.24
392.898	4916.41
393.119	4951.57
393.34	4988.08
393.561	5018.82
393.782	5055.52
394.003	5089.86
394.223	5121.84
394.444	5154.04
394.665	5189.37
394.886	5220.84
395.107	5255.88
395.328	5291.01
395.549	5325.5
395.77	5357.61
395.99	5390.04
396.211	5422.81
396.432	5453.26
396.653	5488.42
396.874	5522.33
397.094	5556.5
397.315	5591.66
397.536	5624.61
397.757	5655.62
397.977	5686.3
398.198	5724.01
398.419	5756.61
398.639	5788.81
398.86	5828.57
399.081	5863.44
399.301	5896.21
399.522	5932.42
399.742	5968.64
399.963	6004.75
400.184	6042.84
400.404	6079.32
400.625	6111.15
400.845	6153.02
401.066	6186.26
401.286	6219.82
401.507	6250.97
401.727	6289.01
401.948	6324.77
402.168	6359.81
402.388	6396.19
402.609	6433.86
402.829	6469.15
403.05	6506.46
403.27	6539.24
403.49	6580.46
403.711	6612.44
403.931	6650.19
404.151	6685.22
404.372	6719.77
404.592	6751.99
404.812	6784.37
405.032	6818.08
405.253	6854.42
405.473	6888.5
405.693	6926.61
405.913	6958.9
406.133	7001.86
406.353	7038.52
406.574	7072.12
406.794	7109.01
407.014	7149.57
407.234	7187.32
407.454	7223.68
407.674	7257.06
407.894	7295.68
408.114	7330.77
408.334	7371.53
408.554	7406.81
408.774	7445.59
408.994	7486.21
409.214	7523.57
409.434	7563.5
409.654	7604.95
409.874	7642.06
410.094	7684.68
410.314	7717.37
410.534	7757.19
410.754	7794.92
410.974	7835.64
411.193	7871.93
411.413	7909.77
411.633	7950.68
411.853	7986.81
412.073	8025.02
412.292	8065.17
412.512	8103.42
412.732	8147.46
412.952	8185.68
413.171	8228.24
413.391	8267.68
413.611	8307.41
413.831	8348.5
414.05	8388.41
414.27	8431.17
414.489	8472.13
414.709	8514.24
414.929	8556.01
415.148	8600.19
415.368	8642.77
415.587	8683.86
415.807	8725.26
416.026	8770.22
416.246	8816.55
416.465	8854.77
416.685	8899.1
416.904	8940.21
417.124	8982.55
417.343	9027.55
417.563	9065.97
417.782	9109.02
418.002	9152.59
418.221	9195.22
418.44	9241.39
418.66	9277.3
418.879	9319.01
419.098	9356.68
419.318	9405.17
419.537	9449.15
419.756	9494.24
419.976	9540.12
420.195	9581.39
420.414	9624.61
420.633	9669.48
420.853	9709.26
421.072	9761.19
421.291	9815.68
421.51	9864.5
421.729	9903.37
421.948	9950.93
422.168	9990.75
422.387	10036.68
422.606	10080.7
422.825	10124.26
423.044	10165.48
423.263	10210.17
423.482	10246.82
423.701	10288.52
423.92	10329.77
424.139	10375.37
424.358	10416.3
424.577	10463.32
424.796	10510.46
425.015	10554.33
425.234	10599.61
425.453	10643.32
425.672	10691.44
425.891	10739.73
426.11	10782.19
426.328	10833.66
426.547	10881.93
426.766	10932.19
426.985	10979.04
427.204	11018.06
427.422	11067.84
427.641	11110.55
427.86	11160.02
428.079	11206.41
428.297	11255.97
428.516	11302.9
428.735	11346.32
428.954	11390.02
429.172	11432.64
429.391	11485.52
429.61	11537.86
429.828	11589.66
430.047	11643.37
430.265	11690.5
430.484	11735.24
430.703	11781.81
430.921	11831.28
431.14	11879.72
431.358	11928.42
431.577	11973.1
431.795	12016.64
432.014	12063.92
432.232	12108.32
432.451	12154.48
432.669	12203.44
432.887	12259.77
433.106	12307.12
433.324	12352.35
433.543	12401.95
433.761	12455.24
433.979	12510.59
434.198	12558.21
434.416	12605.95
434.634	12651.99
434.853	12701.3
435.071	12741.77
435.289	12780.97
435.507	12834.37
435.726	12877.9
435.944	12919.64
436.162	12959.59
436.38	12997.95
436.598	13041.19
436.817	13083.95
437.035	13136.99
437.253	13180.59
437.471	13231.77
437.689	13282.01
437.907	13320.81
438.125	13375.42
438.343	13429.55
438.561	13480.68
438.78	13537.52
438.998	13585.39
439.216	13638.52
439.434	13683.64
439.652	13730.88
439.869	13778.75
440.087	13826.68
440.305	13876.66
440.523	13926.33
440.741	13971.24
440.959	14017.57
441.177	14062.44
441.395	14118.46
441.613	14162.95
441.831	14212.48
442.048	14260.75
442.266	14313.53
442.484	14364.62
442.702	14414.33
442.919	14460.21
443.137	14509.77
443.355	14557.08
443.573	14607.66
443.79	14651.41
444.008	14698.61
444.226	14742.93
444.443	14796.37
444.661	14841.32
444.879	14885.13
445.096	14931.84
445.314	14981.26
445.532	15027.42
445.749	15078.26
445.967	15124.61
446.184	15168.46
446.402	15215.48
446.619	15259.24
446.837	15303.72
447.054	15353.93
447.272	15400.79
447.489	15445.59
447.707	15491.35
447.924	15537.84
448.141	15589.52
448.359	15637.46
448.576	15686.06
448.794	15739.39
449.011	15791.24
449.228	15840.42
449.446	15884.81
449.663	15935.72
449.88	15986.93
450.098	16032.53
450.315	16082.17
450.532	16128.01
450.749	16175.53
450.967	16231.1
451.184	16278.39
451.401	16326.55
451.618	16372.08
451.835	16420.1
452.052	16471.73
452.27	16525.42
452.487	16575.7
452.704	16621.61
452.921	16667.61
453.138	16714.64
453.355	16758.13
453.572	16806.55
453.789	16852.53
454.006	16900.24
454.223	16951.88
454.44	16991.9
454.657	17036.28
454.874	17087.72
455.091	17138.57
455.308	17184.13
455.525	17233.93
455.742	17277.53
455.959	17322.28
456.176	17373.13
456.393	17422.97
456.609	17472.53
456.826	17520.82
457.043	17572.73
457.26	17611.55
457.477	17651.42
457.693	17700.57
457.91	17749.01
458.127	17799.77
458.344	17847.13
458.56	17892.39
458.777	17927.42
458.994	17963.32
459.21	18002.79
459.427	18034.08
459.644	18073.92
459.86	18115.75
460.077	18148.53
460.294	18177.97
460.51	18212.44
460.727	18240.57
460.943	18274.48
461.16	18317.97
461.376	18355.19
461.593	18397.02
461.809	18434.28
462.026	18478.44
462.242	18515.9
462.459	18558.19
462.675	18596.48
462.892	18636.73
463.108	18682.53
463.324	18723.33
463.541	18761.04
463.757	18806.92
463.974	18848.92
464.19	18899.24
464.406	18942.97
464.623	18988.42
464.839	19037.55
465.055	19087.28
465.271	19136.48
465.488	19184.33
465.704	19237.86
465.92	19287.88
466.136	19333.66
466.353	19385.57
466.569	19428.02
466.785	19478.48
467.001	19540.92
467.217	19592.84
467.433	19655.33
467.649	19712.06
467.865	19777.9
468.082	19834.77
468.298	19901.97
468.514	19971.17
468.73	20030.9
468.946	20100.41
469.162	20165.37
469.378	20218.93
469.594	20277.97
469.81	20342.77
470.026	20405.37
470.242	20460.24
470.457	20524.73
470.673	20582.93
470.889	20646.22
471.105	20718.12
471.321	20783.55
471.537	20847.95
471.753	20917.68
471.968	20995.86
472.184	21065.57
472.4	21135.79
472.616	21213.53
472.832	21291.19
473.047	21370.15
473.263	21441.9
473.479	21506.82
473.694	21575.55
473.91	21651.46
474.126	21733.53
474.341	21808.22
474.557	21879.73
474.773	21948.13
474.988	22014.72
475.204	22090.72
475.42	22167.44
475.635	22234.48
475.851	22312.21
476.066	22386.75
476.282	22453.84
476.497	22516.81
476.713	22579.13
476.928	22642.99
477.144	22713.61
477.359	22781.1
477.575	22831.06
477.79	22887.66
478.005	22951.97
478.221	23015.66
478.436	23079.95
478.651	23145.95
478.867	23209.39
479.082	23264.02
479.297	23325.28
479.513	23375.17
479.728	23429.64
479.943	23481.73
480.159	23537.08
480.374	23591.32
480.589	23645.97
480.804	23693.55
481.019	23737.95
481.235	23786.88
481.45	23845.5
481.665	23892.01
481.88	23952.72
482.095	24011.52
482.31	24074.95
482.525	24124.88
482.741	24179.57
482.956	24221.79
483.171	24268.53
483.386	24313.61
483.601	24361.95
483.816	24407.1
484.031	24448.5
484.246	24489.99
484.461	24521.61
484.676	24556.75
484.891	24599.81
485.105	24634.95
485.32	24671.75
485.535	24721.77
485.75	24768.79
485.965	24805.55
486.18	24852.33
486.395	24898.64
486.609	24942.01
486.824	24997.72
487.039	25041.88
487.254	25081.68
487.469	25127.39
487.683	25177.17
487.898	25210.5
488.113	25253.81
488.327	25292.04
488.542	25324.17
488.757	25369.08
488.972	25400.81
489.186	25427.13
489.401	25458.35
489.615	25495.55
489.83	25531.39
490.045	25562.68
490.259	25603.72
490.474	25636.59
490.688	25670.7
490.903	25704.81
491.117	25739.32
491.332	25775.84
491.546	25814.17
491.761	25847.92
491.975	25881.53
492.19	25912.48
492.404	25941.37
492.618	25965.99
492.833	26008.3
493.047	26033.28
493.262	26064.15
493.476	26078.75
493.69	26107.22
493.905	26131.9
494.119	26163.24
494.333	26192.5
494.547	26216.48
494.762	26240.46
494.976	26269.97
495.19	26278.32
495.404	26317.3
495.619	26343.86
495.833	26377.62
496.047	26405.39
496.261	26425.75
496.475	26439.15
496.689	26444.68
496.903	26449.39
497.117	26460.59
497.332	26454.33
497.546	26451.9
497.76	26435.46
497.974	26419.39
498.188	26399.08
498.402	26386.44
498.616	26382.17
498.83	26376.82
499.044	26370.33
499.258	26379.84
499.472	26377.93
499.685	26386.42
499.899	26395.06
500.113	26404.97
500.327	26420.79
500.541	26447.64
500.755	26461.06
500.969	26476.26
501.183	26494.22
501.396	26515.37
501.61	26525.64
501.824	26544.37
502.038	26567.64
502.251	26592.99
502.465	26616.06
502.679	26631.15
502.892	26645.33
503.106	26663.1
503.32	26684.59
503.533	26704.53
503.747	26726.97
503.961	26751.62
504.174	26775.52
504.388	26802.01
504.602	26829.44
504.815	26868.28
505.029	26906.17
505.242	26940.81
505.456	26993.12
505.669	27033.73
505.883	27079.77
506.096	27128.32
506.31	27182.95
506.523	27235.19
506.736	27285.17
506.95	27338.01
507.163	27380.5
507.377	27441.1
507.59	27504.15
507.803	27556.52
508.017	27625.13
508.23	27682.92
508.443	27747.13
508.657	27807.72
508.87	27876.39
509.083	27949.66
509.296	28015.93
509.51	28100.12
509.723	28175.52
509.936	28258.97
510.149	28340.42
510.363	28425.21
510.576	28518.64
510.789	28611.62
511.002	28709.62
511.215	28807.86
511.428	28908.64
511.641	29018.1
511.854	29120.19
512.067	29225.41
512.28	29326.86
512.493	29436.48
512.707	29537.82
512.92	29644.93
513.132	29746.33
513.345	29852.21
513.558	29963.7
513.771	30064.46
513.984	30168.19
514.197	30273.33
514.41	30379.22
514.623	30485.95
514.836	30589.01
515.049	30689.9
515.262	30798.28
515.474	30905.75
515.687	31011.73
515.9	31114.55
516.113	31218.99
516.325	31315.73
516.538	31415.28
516.751	31509.22
516.964	31599.21
517.176	31685.61
517.389	31772.41
517.602	31856.08
517.814	31945.13
518.027	32023.19
518.24	32092.41
518.452	32167.06
518.665	32247.99
518.877	32319.28
519.09	32388.48
519.303	32466.61
519.515	32542.17
519.728	32616.33
519.94	32689.53
520.153	32762.9
520.365	32832.77
520.578	32903.39
520.79	32968.3
521.002	33039.5
521.215	33107.15
521.427	33172.86
521.64	33222.86
521.852	33273.88
522.064	33324.04
522.277	33372.92
522.489	33412.22
522.701	33457.17
522.914	33509.86
523.126	33559.64
523.338	33597.75
523.551	33649.24
523.763	33698.79
523.975	33749.24
524.187	33801.55
524.399	33855.79
524.612	33907.21
524.824	33952.88
525.036	34007.84
525.248	34049.13
525.46	34094.55
525.672	34142.55
525.884	34177.55
526.096	34209.06
526.308	34249.68
526.521	34288.13
526.733	34316.22
526.945	34350.26
527.157	34381.53
527.369	34404.72
527.581	34429.02
527.793	34451.75
528.004	34474.08
528.216	34500.82
528.428	34539.59
528.64	34563.9
528.852	34594.9
529.064	34624.93
529.276	34648.53
529.488	34681.39
529.699	34714.32
529.911	34747.35
530.123	34785.75
530.335	34820.19
530.547	34854.1
530.758	34879.72
530.97	34920.12
531.182	34947.13
531.393	34982.32
531.605	35014.61
531.817	35051.08
532.029	35074.84
532.24	35112.06
532.452	35142.9
532.663	35177.02
532.875	35200.17
533.087	35228.28
533.298	35239.13
533.51	35253.79
533.721	35271.97
533.933	35293.01
534.144	35313.06
534.356	35333.01
534.567	35347.62
534.779	35359.75
534.99	35365.06
535.202	35387.44
535.413	35406.79
535.624	35437.68
535.836	35468.39
536.047	35493.41
536.259	35507.97
536.47	35521.15
536.681	35542.06
536.893	35551.75
537.104	35574.9
537.315	35590.64
537.526	35600.5
537.738	35613.88
537.949	35620.86
538.16	35633.7
538.371	35640.7
538.582	35660.73
538.794	35676.44
539.005	35695.97
539.216	35722.35
539.427	35741.02
539.638	35759.53
539.849	35780.97
540.06	35794.33
540.272	35814.84
540.483	35827.02
540.694	35842.9
540.905	35862.21
541.116	35881.21
541.327	35890.7
541.538	35901.73
541.749	35912.37
541.96	35936.37
542.17	35952.41
542.381	35962.21
542.592	35973.01
542.803	35976.15
543.014	35992.33
543.225	35985.42
543.436	35996.32
543.647	36008.01
543.857	36026.24
544.068	36019.22
544.279	36018.73
544.49	36019.02
544.701	36028.06
544.911	36039.7
545.122	36056.28
545.333	36061.7
545.543	36082.33
545.754	36089.7
545.965	36095.81
546.175	36097.13
546.386	36122.15
546.597	36136.21
546.807	36151.02
547.018	36165.92
547.229	36169.12
547.439	36185.41
547.65	36192.55
547.86	36202.01
548.071	36205.35
548.281	36206.61
548.492	36211.73
548.702	36214.95
548.913	36223.04
549.123	36220.5
549.333	36224.55
549.544	36237.22
549.754	36233.64
549.965	36243.37
550.175	36249.61
550.385	36269.57
550.596	36297.04
550.806	36308.42
551.016	36319.75
551.227	36328.19
551.437	36346.62
551.647	36362.97
551.857	36369.86
552.068	36375.46
552.278	36388.15
552.488	36399.28
552.698	36403.93
552.908	36401.06
553.119	36409.44
553.329	36415.46
553.539	36418.86
553.749	36413.92
553.959	36414.79
554.169	36417.22
554.379	36429.01
554.589	36434.84
554.799	36435.73
555.009	36433.48
555.219	36443.41
555.429	36449.04
555.639	36451.19
555.849	36454.55
556.059	36460.75
556.269	36463.79
556.479	36471.48
556.689	36467.04
556.899	36463.61
557.109	36465.61
557.319	36459.26
557.528	36455.59
557.738	36452.66
557.948	36444.1
558.158	36434.86
558.368	36430.32
558.577	36413.75
558.787	36406.64
558.997	36403.99
559.207	36395.12
559.416	36386.02
559.626	36385.9
559.836	36375.28
560.045	36362.55
560.255	36371.55
560.465	36378.21
560.674	36382.28
560.884	36386.1
561.093	36383.35
561.303	36381.02
561.512	36386.95
561.722	36384.24
561.932	36380.9
562.141	36381.55
562.351	36385.88
562.56	36378.02
562.769	36376.21
562.979	36381.59
563.188	36394.15
563.398	36398.21
563.607	36414.46
563.817	36407.44
564.026	36408.79
564.235	36403.59
564.445	36399.46
564.654	36398.77
564.863	36398.39
565.073	36388.99
565.282	36386.22
565.491	36367.9
565.7	36359.88
565.91	36341.68
566.119	36341.95
566.328	36327.21
566.537	36319.04
566.746	36313.62
566.956	36306.46
567.165	36300.77
567.374	36296.02
567.583	36281.24
567.792	36275.48
568.001	36256.93
568.21	36230.97
568.419	36207.75
568.628	36194.5
568.837	36175.92
569.046	36153.53
569.255	36122.13
569.464	36087.55
569.673	36061.93
569.882	36031.28
570.091	36002.86
570.3	35978.61
570.509	35963.37
570.718	35949.37
570.927	35939.01
571.135	35935.13
571.344	35929.39
571.553	35928.1
571.762	35929.57
571.971	35927.46
572.18	35924.52
572.388	35919.41
572.597	35909.02
572.806	35896.12
573.014	35883.7
573.223	35862.42
573.432	35835.88
573.641	35814.26
573.849	35788.82
574.058	35756.84
574.266	35730.26
574.475	35711.42
574.684	35700.01
574.892	35688.06
575.101	35690.24
575.309	35678.19
575.518	35675.59
575.726	35667.68
575.935	35657.02
576.143	35652.92
576.352	35648.61
576.56	35629.88
576.769	35610.32
576.977	35595.62
577.186	35586.22
577.394	35563.35
577.602	35544.53
577.811	35521.41
578.019	35499.52
578.228	35487.53
578.436	35462.5
578.644	35443.02
578.852	35436.52
579.061	35419.9
579.269	35393.44
579.477	35369.19
579.685	35346.64
579.894	35328.26
580.102	35305.04
580.31	35286.75
580.518	35266.59
580.726	35254.68
580.935	35236.72
581.143	35210.93
581.351	35199.32
581.559	35180.93
581.767	35154.26
581.975	35134.15
582.183	35111.19
582.391	35091.66
582.599	35073.66
582.807	35046.95
583.015	35031.1
583.223	35014.64
583.431	35001.64
583.639	34980.92
583.847	34968.19
584.055	34958.68
584.263	34937.26
584.471	34920.1
584.678	34895.26
584.886	34879.01
585.094	34865.46
585.302	34846.93
585.51	34825.9
585.718	34805.08
585.925	34780.28
586.133	34749.12
586.341	34728.72
586.549	34713.55
586.756	34690.35
586.964	34679.15
587.172	34658.26
587.379	34633.21
587.587	34606.24
587.795	34583.57
588.002	34554.15
588.21	34529.79
588.417	34506.53
588.625	34473.97
588.833	34445.97
589.04	34424.66
589.248	34393.52
589.455	34374.19
589.663	34354.13
589.87	34332.93
590.078	34312.59
590.285	34296.7
590.492	34266.08
590.7	34248.95
590.907	34223.02
591.115	34198.37
591.322	34171.79
591.529	34158.46
591.737	34126.17
591.944	34101.32
592.151	34066.13
592.359	34034.55
592.566	34009.7
592.773	33991.66
592.981	33962.41
593.188	33942.95
593.395	33923.22
593.602	33899.13
593.809	33864.57
594.017	33839.99
594.224	33818.41
594.431	33790.53
594.638	33764.02
594.845	33735.37
595.052	33712.39
595.259	33692.46
595.466	33672.81
595.673	33643.61
595.88	33625.04
596.088	33597.08
596.295	33581.64
596.502	33549.57
596.709	33524.61
596.915	33504.41
597.122	33475.86
597.329	33445.66
597.536	33418.61
597.743	33392.97
597.95	33371.77
598.157	33338.9
598.364	33306.46
598.571	33263.48
598.777	33220.42
598.984	33174.28
599.191	33120.62
599.398	33071.57
599.605	33031.08
599.811	32985.13
600.018	32922.86
600.225	32864.41
600.431	32805.15
600.638	32789.64
600.845	32754.3
601.052	32726.41
601.258	32703.53
601.465	32673.06
601.671	32625.61
601.878	32553.55
602.085	32467.62
602.291	32386.88
602.498	32272.9
602.704	32146.84
602.911	31974.52
603.117	31794.55
603.324	31598.5
603.53	31375.44
603.737	31140.41
603.943	30902.13
604.15	30657.59
604.356	30415.13
604.562	30151.88
604.769	29892.44
604.975	29632.5
605.181	29360.77
605.388	29097.86
605.594	28826.97
605.8	28563.52
606.007	28302.15
606.213	28032.37
606.419	27761.79
606.625	27489.1
606.832	27220.22
607.038	26951.95
607.244	26679.53
607.45	26419.04
607.656	26148.08
607.863	25867.44
608.069	25586.15
608.275	25299.75
608.481	25021.64
608.687	24743.73
608.893	24456.75
609.099	24165.62
609.305	23884.01
609.511	23595.68
609.717	23307.57
609.923	23004.95
610.129	22708.08
610.335	22410.73
610.541	22114.12
610.747	21812.08
610.953	21503.73
611.159	21192.99
611.365	20891.59
611.571	20573.88
611.776	20263.04
611.982	19939.73
612.188	19630.52
612.394	19310.77
612.6	18986.72
612.806	18656.12
613.011	18332.06
613.217	18009.41
613.423	17685.32
613.628	17361.62
613.834	17042.97
614.04	16724.48
614.246	16413.24
614.451	16104.17
614.657	15805.19
614.862	15525.99
615.068	15248.28
615.274	14968.02
615.479	14698.84
615.685	14441.48
615.89	14180.97
616.096	13920.19
616.301	13658.77
616.507	13397.5
616.712	13133.95
616.918	12876.72
617.123	12601.06
617.329	12330.06
617.534	12053.48
617.74	11770.08
617.945	11481.81
618.15	11183.62
618.356	10722.64
618.561	9866.46
618.766	8826.13
618.972	7753.55
619.177	6705.08
619.382	5688.21
619.588	4695.5
619.793	4104.39
619.998	3416.09
620.203	2588.46
620.408	1579.5
620.614	588.43
