Data from test1_MAYP1115451__53__10-14-55-575.txt Node

Date: Wed Jun 12 10:14:55 MDT 2024
User: Modes Lab
Spectrometer: MAYP111545
Trigger mode: 0
Integration Time (sec): 8.000000E-3
Scans to average: 5
Electric dark correction enabled: true
Nonlinearity correction enabled: false
Boxcar width: 5
XAxis mode: Wavelengths
Number of Pixels in Spectrum: 2068
>>>>>Begin Spectral Data<<<<<
165.214	163.5
165.449	164.54
165.683	173.25
165.918	182
166.152	188.34
166.387	194.05
166.621	126.93
166.856	165.49
167.09	184.02
167.325	206.89
167.559	222.91
167.794	237.11
168.028	243.95
168.263	245.78
168.497	245.89
168.732	246.45
168.966	247.22
169.2	247.55
169.435	249.35
169.669	250.82
169.903	252.98
170.138	255.29
170.372	256.71
170.606	258.35
170.841	258.75
171.075	260.36
171.309	261.98
171.544	263.13
171.778	265.13
172.012	267.76
172.246	269.24
172.48	271
172.715	272.82
172.949	275.84
173.183	278.73
173.417	280.8
173.651	281.82
173.885	283.6
174.119	284.76
174.354	285.47
174.588	284.18
174.822	285.18
175.056	284.84
175.29	284.11
175.524	283.25
175.758	282.11
175.992	282.75
176.226	282.96
176.46	282.93
176.694	282.75
176.928	283.42
177.162	284.38
177.396	285.96
177.63	287.29
177.864	288.78
178.097	289.55
178.331	290.13
178.565	290.91
178.799	291.6
179.033	292.4
179.267	293.18
179.5	293.58
179.734	293.95
179.968	294.44
180.202	295.35
180.436	295.78
180.669	296.69
180.903	297.02
181.137	298.42
181.371	299.8
181.604	300.6
181.838	303.04
182.072	305
182.305	307.31
182.539	307.6
182.772	309.04
183.006	310.29
183.24	311.55
183.473	315.93
183.707	317.15
183.94	317.87
184.174	319.35
184.408	319.33
184.641	319.29
184.875	319.51
185.108	320.45
185.342	321.6
185.575	324.4
185.808	325.35
186.042	324.87
186.275	325.07
186.509	327.16
186.742	328.73
186.976	330.04
187.209	332.58
187.442	335.07
187.676	336.71
187.909	336.93
188.142	337.05
188.376	339.33
188.609	340.47
188.842	342.31
189.076	342.25
189.309	344.16
189.542	345.85
189.775	346.89
190.009	348.22
190.242	349.36
190.475	352.55
190.708	353.89
190.941	355.38
191.174	356.49
191.408	357.85
191.641	360.69
191.874	361.89
192.107	364.4
192.34	366.22
192.573	368.16
192.806	370.38
193.039	371.11
193.272	373.29
193.505	375.27
193.738	377.16
193.971	379.33
194.204	380.56
194.437	382.44
194.67	384.15
194.903	386.04
195.136	388.24
195.369	390.27
195.602	392.27
195.835	393.73
196.068	395.02
196.301	397.49
196.533	400.35
196.766	402.45
196.999	404.8
197.232	406.09
197.465	407.82
197.698	409.16
197.93	410.93
198.163	413.67
198.396	416.02
198.629	417.31
198.861	419.44
199.094	420.87
199.327	423.38
199.559	424.71
199.792	427.44
200.025	429.91
200.257	431.96
200.49	434.11
200.723	434.89
200.955	437.91
201.188	441.22
201.42	443.18
201.653	445.62
201.886	448.64
202.118	450.64
202.351	453.8
202.583	456.36
202.816	458.27
203.048	460.78
203.281	463.73
203.513	465.25
203.745	467.44
203.978	469.25
204.21	471.04
204.443	472.15
204.675	473.87
204.907	475.58
205.14	477
205.372	479.87
205.605	481.78
205.837	485.29
206.069	487.91
206.302	489.55
206.534	492.75
206.766	495.07
206.998	497.62
207.231	500.73
207.463	503.45
207.695	506.91
207.927	509.2
208.159	512
208.392	511.78
208.624	514.05
208.856	515.42
209.088	516.62
209.32	519.93
209.552	521.64
209.784	523.33
210.017	525.11
210.249	526.78
210.481	529.05
210.713	531.8
210.945	535.71
211.177	537.4
211.409	540.85
211.641	543.51
211.873	543.36
212.105	546.55
212.337	548.91
212.569	550.24
212.801	552.47
213.033	553.05
213.264	554.04
213.496	554.89
213.728	556.56
213.96	557.71
214.192	559.11
214.424	562.75
214.656	563.22
214.887	566.29
215.119	568.44
215.351	570.36
215.583	572.62
215.815	574.84
216.046	577.4
216.278	579.71
216.51	580.73
216.741	583.05
216.973	585.38
217.205	588.31
217.436	589.02
217.668	592.2
217.9	593.64
218.131	594.24
218.363	595.78
218.595	596.85
218.826	596.96
219.058	599.91
219.289	600.45
219.521	599.65
219.752	599.8
219.984	600.07
220.215	599.35
220.447	599.69
220.678	602.53
220.91	603.95
221.141	604.07
221.373	607.02
221.604	607.6
221.836	609.42
222.067	611.22
222.298	612.49
222.53	613.64
222.761	614.53
222.993	615.22
223.224	616.6
223.455	617.49
223.686	620.62
223.918	619.71
224.149	622.2
224.38	622.98
224.612	623.89
224.843	626.02
225.074	627.02
225.305	628.29
225.536	630.04
225.768	631.04
225.999	630.91
226.23	631.42
226.461	632.35
226.692	630.71
226.923	631.27
227.155	634.6
227.386	634.07
227.617	634.56
227.848	634.84
228.079	635.44
228.31	633.85
228.541	634.82
228.772	633.75
229.003	635.22
229.234	637.65
229.465	637.07
229.696	634.51
229.927	633.33
230.158	633.82
230.389	633.58
230.62	632.75
230.85	633.22
231.081	632.47
231.312	633.11
231.543	633.07
231.774	631.35
232.005	633.18
232.236	634.07
232.466	635.76
232.697	636.53
232.928	636.04
233.159	635.95
233.389	636.45
233.62	637.16
233.851	637.62
234.082	636.64
234.312	638.05
234.543	637.07
234.774	635.45
235.004	635.02
235.235	634.25
235.466	635.33
235.696	635.75
235.927	635.47
236.157	635.15
236.388	634.73
236.618	634.75
236.849	633.07
237.08	633.31
237.31	634.24
237.541	634.38
237.771	632.91
238.002	633.27
238.232	632.96
238.463	633.51
238.693	633.49
238.923	634.11
239.154	633
239.384	633.45
239.615	632.6
239.845	630.62
240.075	630.33
240.306	631.69
240.536	629.4
240.766	628.67
240.997	628.07
241.227	627.24
241.457	625.15
241.687	625.64
241.918	625.35
242.148	624.69
242.378	625.16
242.608	625.04
242.839	623.36
243.069	623.91
243.299	623.85
243.529	625.35
243.759	624.8
243.989	624.18
244.22	623.89
244.45	622.98
244.68	623.11
244.91	622.96
245.14	621.18
245.37	622.45
245.6	621.36
245.83	621.58
246.06	618.69
246.29	618.47
246.52	618.75
246.75	617.93
246.98	618.25
247.21	617.51
247.44	616.33
247.67	616.24
247.9	614.84
248.13	613.85
248.359	613.6
248.589	613.31
248.819	612.82
249.049	613.13
249.279	612
249.509	610.27
249.738	610.27
249.968	609.38
250.198	608.51
250.428	608.22
250.657	608.07
250.887	606.84
251.117	606.18
251.347	605.11
251.576	604.42
251.806	604.67
252.036	604.76
252.265	602.93
252.495	603.69
252.725	604.24
252.954	603.38
253.184	601.73
253.413	600.33
253.643	599.96
253.873	600.51
254.102	599.38
254.332	597.69
254.561	597.24
254.791	597.96
255.02	596.4
255.25	595.35
255.479	595.02
255.708	595.53
255.938	595.35
256.167	594.6
256.397	591.84
256.626	591.36
256.856	591.07
257.085	589.71
257.314	587.76
257.544	586.96
257.773	585.38
258.002	584.07
258.232	583.76
258.461	582.31
258.69	582.44
258.919	582.75
259.149	581.49
259.378	580.89
259.607	580.51
259.836	580.76
260.065	582.04
260.295	581.82
260.524	580.33
260.753	578.93
260.982	578.65
261.211	577.27
261.44	577.25
261.669	577.6
261.899	576.27
262.128	576.13
262.357	575.82
262.586	573.58
262.815	572.71
263.044	573.87
263.273	576.58
263.502	576.47
263.731	575.04
263.96	573.56
264.189	570.82
264.418	570.55
264.646	569.05
264.875	567.22
265.104	566.58
265.333	566.31
265.562	563.93
265.791	559.22
266.02	556.76
266.249	555.91
266.477	554.07
266.706	553.78
266.935	554.53
267.164	554.11
267.393	552.8
267.621	552.15
267.85	550.91
268.079	551.55
268.307	552.31
268.536	552.69
268.765	552.78
268.993	553.05
269.222	553.04
269.451	551.56
269.679	551.49
269.908	551.78
270.137	552.18
270.365	552.98
270.594	551.42
270.822	549.16
271.051	549.31
271.279	550.67
271.508	551.82
271.736	552.56
271.965	553.15
272.193	552.58
272.422	552.58
272.65	551.69
272.879	550.95
273.107	552.2
273.336	553.53
273.564	553.31
273.792	551.73
274.021	550.07
274.249	548.85
274.477	547.62
274.706	546.05
274.934	545
275.162	543.09
275.391	542.38
275.619	540
275.847	539.58
276.075	537.82
276.304	535.84
276.532	534.22
276.76	533.09
276.988	531.98
277.216	531.82
277.445	529.93
277.673	529.91
277.901	528.76
278.129	528.85
278.357	526.69
278.585	526.13
278.813	525.36
279.041	526
279.269	525
279.497	524.38
279.725	523.82
279.954	523.38
280.182	522.47
280.41	522.13
280.637	522.07
280.865	522.55
281.093	521.82
281.321	521.51
281.549	520.91
281.777	520.65
282.005	520.45
282.233	518.65
282.461	519.4
282.689	519.51
282.916	518.82
283.144	517.91
283.372	518.15
283.6	517.29
283.828	517.04
284.055	516.56
284.283	516.09
284.511	515.38
284.739	516.42
284.966	515.2
285.194	513.24
285.422	512.76
285.649	512.42
285.877	510.85
286.105	511.11
286.332	510.84
286.56	510.15
286.788	509.78
287.015	508.87
287.243	507.98
287.47	508.24
287.698	509.78
287.925	507.95
288.153	508.13
288.381	507.55
288.608	507.4
288.836	506.76
289.063	507.04
289.29	505.78
289.518	506.13
289.745	505.58
289.973	504.2
290.2	502.96
290.428	502.87
290.655	501.11
290.882	501
291.11	499.67
291.337	498.65
291.564	496.8
291.792	496.85
292.019	495.22
292.246	495.22
292.473	494.4
292.701	494.04
292.928	494.44
293.155	493.87
293.382	493.62
293.61	493.69
293.837	492.65
294.064	491.96
294.291	491.33
294.518	491.35
294.745	490.04
294.972	490.38
295.2	490.69
295.427	490.98
295.654	490.11
295.881	488.16
296.108	486.49
296.335	487.15
296.562	487.11
296.789	486.31
297.016	485.6
297.243	485.24
297.47	485.07
297.697	482.45
297.924	481.04
298.151	481.45
298.378	482.11
298.604	482.33
298.831	481.15
299.058	480.36
299.285	479.73
299.512	478.78
299.739	478.31
299.966	476.38
300.192	476.75
300.419	476.65
300.646	475.47
300.873	474.33
301.099	474.07
301.326	474.36
301.553	473.42
301.78	473.85
302.006	473.55
302.233	473.13
302.46	473.78
302.686	472.69
302.913	471.64
303.14	471.05
303.366	470.78
303.593	470
303.819	469.27
304.046	468.6
304.272	468.22
304.499	469.91
304.725	469.53
304.952	469.2
305.179	468.55
305.405	469.56
305.631	469.45
305.858	468.98
306.084	469.02
306.311	468.56
306.537	469.53
306.764	468.49
306.99	467.96
307.216	467.49
307.443	466.98
307.669	467.25
307.895	465.84
308.122	464.44
308.348	463.85
308.574	463.35
308.801	462.71
309.027	462.45
309.253	462.31
309.479	460.6
309.706	461.6
309.932	461.98
310.158	461.51
310.384	460.75
310.61	462.13
310.837	461.64
311.063	461.56
311.289	461.36
311.515	461.55
311.741	461.45
311.967	461.78
312.193	460.78
312.419	460.16
312.645	460.78
312.871	460.69
313.097	460.35
313.323	462.27
313.549	463.09
313.775	463.4
314.001	462.18
314.227	461.38
314.453	461.62
314.679	462.02
314.905	461.4
315.131	461.2
315.357	461.47
315.583	461.58
315.809	459.95
316.034	459.47
316.26	460.49
316.486	461.31
316.712	462.82
316.938	462.38
317.163	462.45
317.389	463.09
317.615	464.35
317.841	465.44
318.066	466.02
318.292	467.73
318.518	469.42
318.743	469.15
318.969	470.75
319.195	471.49
319.42	472.44
319.646	472.91
319.872	474.71
320.097	474.89
320.323	475.55
320.548	476.8
320.774	477.6
320.999	477.13
321.225	479.91
321.45	480.84
321.676	482.29
321.901	482.75
322.127	483.71
322.352	484.33
322.578	486.51
322.803	487.75
323.029	489.13
323.254	491
323.479	492.07
323.705	491.89
323.93	494.29
324.155	496.29
324.381	498.62
324.606	501.02
324.831	503.82
325.057	505.55
325.282	508.24
325.507	510.51
325.732	513.04
325.958	516.71
326.183	519.07
326.408	520.64
326.633	524.71
326.858	527.05
327.084	529.76
327.309	532.05
327.534	534.49
327.759	537.11
327.984	539.98
328.209	542.91
328.434	546.38
328.659	550.87
328.884	553
329.109	554.6
329.334	558.91
329.559	562.02
329.784	566.11
330.009	569.16
330.234	572.67
330.459	575.36
330.684	578.18
330.909	579.55
331.134	582.62
331.359	587.16
331.584	590.11
331.809	593
332.034	596.15
332.259	598.75
332.483	604.95
332.708	609.07
332.933	614.27
333.158	619.42
333.383	625.64
333.607	630.33
333.832	635.29
334.057	640.25
334.282	645.51
334.506	652.29
334.731	658.05
334.956	661.91
335.18	668.51
335.405	673.84
335.63	678.82
335.854	685
336.079	691.35
336.303	697.49
336.528	704
336.753	710.25
336.977	716.05
337.202	722.47
337.426	728.4
337.651	732.95
337.875	740.18
338.1	746.98
338.324	753.35
338.549	758.49
338.773	765.33
338.997	772.11
339.222	779.25
339.446	786.04
339.671	793.71
339.895	802.55
340.119	810.64
340.344	818.47
340.568	826.91
340.792	834.04
341.017	842.56
341.241	850.56
341.465	859.29
341.689	867.78
341.914	875.96
342.138	882.55
342.362	890.33
342.586	898.87
342.811	906.95
343.035	914.27
343.259	924.35
343.483	932.04
343.707	940.53
343.931	949.91
344.155	957.53
344.38	967.69
344.604	978.6
344.828	987.93
345.052	996.53
345.276	1005.49
345.5	1015.38
345.724	1024.91
345.948	1035.93
346.172	1046
346.396	1054.51
346.62	1066.8
346.844	1075.53
347.068	1085.8
347.292	1095.89
347.515	1105.65
347.739	1118.18
347.963	1129.24
348.187	1139.98
348.411	1150.47
348.635	1161.27
348.859	1173.45
349.082	1182.27
349.306	1191.96
349.53	1203.25
349.754	1214.87
349.977	1226.56
350.201	1234.42
350.425	1244.93
350.649	1256.16
350.872	1268.02
351.096	1279.16
351.32	1289.65
351.543	1302.96
351.767	1317.02
351.99	1327.35
352.214	1338.29
352.438	1351.09
352.661	1363.35
352.885	1375.69
353.108	1385.49
353.332	1397.29
353.555	1408.33
353.779	1419.76
354.002	1430.6
354.226	1442.42
354.449	1455.44
354.673	1465.84
354.896	1477.44
355.12	1490.16
355.343	1501.18
355.566	1515.18
355.79	1526.96
356.013	1540.44
356.237	1551.75
356.46	1563.98
356.683	1573.47
356.907	1586.02
357.13	1599.91
357.353	1610.71
357.576	1623.49
357.8	1637.36
358.023	1649.8
358.246	1662.58
358.469	1675.55
358.693	1690.35
358.916	1703.87
359.139	1718.96
359.362	1728.84
359.585	1742.71
359.808	1756.73
360.031	1768.53
360.255	1780.53
360.478	1792.15
360.701	1804.65
360.924	1814.78
361.147	1828.44
361.37	1841.71
361.593	1854.51
361.816	1870.55
362.039	1881.25
362.262	1894.69
362.485	1908.75
362.708	1922.38
362.931	1937.93
363.154	1951.15
363.377	1967.33
363.599	1980.44
363.822	1996.11
364.045	2010.75
364.268	2022.75
364.491	2037.64
364.714	2053
364.936	2067
365.159	2083.64
365.382	2095.38
365.605	2111.45
365.828	2128.53
366.05	2142.18
366.273	2154.24
366.496	2168.29
366.718	2184.75
366.941	2200.42
367.164	2216.95
367.386	2234.29
367.609	2249.8
367.832	2269.95
368.054	2285.24
368.277	2299.8
368.5	2316
368.722	2332.44
368.945	2349.38
369.167	2367.04
369.39	2383.22
369.612	2398.91
369.835	2414.91
370.057	2430.65
370.28	2444.05
370.502	2461.51
370.725	2478.04
370.947	2494.98
371.169	2512.09
371.392	2530.58
371.614	2548.36
371.837	2567.6
372.059	2585.84
372.281	2601.64
372.504	2621.11
372.726	2640.71
372.948	2655.78
373.171	2675.27
373.393	2695.53
373.615	2714.45
373.837	2733.93
374.06	2750.38
374.282	2768.35
374.504	2785.67
374.726	2805.15
374.948	2821.8
375.17	2837.55
375.393	2860.73
375.615	2880.18
375.837	2900.11
376.059	2916.78
376.281	2932.89
376.503	2952.95
376.725	2973.2
376.947	2992.2
377.169	3013.56
377.391	3033.6
377.613	3056.73
377.835	3074.96
378.057	3094.89
378.279	3113.62
378.501	3138.18
378.723	3158.45
378.945	3180.27
379.167	3203.13
379.389	3225.36
379.611	3246.85
379.833	3271.35
380.054	3297.8
380.276	3322.55
380.498	3345.65
380.72	3370
380.942	3396.4
381.163	3423.64
381.385	3448.82
381.607	3473.31
381.829	3500.45
382.05	3525.56
382.272	3549.84
382.494	3569.24
382.716	3595.51
382.937	3619.87
383.159	3644.58
383.381	3667.13
383.602	3693.05
383.824	3721.93
384.045	3748.25
384.267	3775.25
384.488	3801.64
384.71	3830.07
384.932	3857.85
385.153	3885.95
385.375	3914.16
385.596	3942.05
385.818	3971.85
386.039	4000.24
386.261	4024.2
386.482	4047.73
386.703	4074.55
386.925	4104.36
387.146	4127.42
387.368	4157.93
387.589	4183.91
387.81	4212.98
388.032	4243.51
388.253	4270.84
388.474	4300.18
388.696	4331.27
388.917	4365.76
389.138	4397.2
389.359	4428.2
389.581	4462.42
389.802	4493.76
390.023	4526.55
390.244	4556.16
390.465	4588.29
390.687	4619.51
390.908	4650.22
391.129	4681.96
391.35	4712.98
391.571	4744.15
391.792	4773.65
392.013	4803.11
392.234	4833.51
392.455	4864.84
392.677	4898.51
392.898	4926.55
393.119	4960.09
393.34	4990.31
393.561	5018.64
393.782	5047.47
394.003	5083.98
394.223	5119.04
394.444	5153.73
394.665	5189.87
394.886	5223.42
395.107	5254.71
395.328	5291.53
395.549	5325.73
395.77	5358.42
395.99	5395.11
396.211	5433.67
396.432	5463.85
396.653	5496.38
396.874	5532.95
397.094	5565.95
397.315	5595.44
397.536	5630.24
397.757	5663.16
397.977	5695.67
398.198	5733.69
398.419	5767.35
398.639	5797.98
398.86	5828.78
399.081	5862.58
399.301	5894.85
399.522	5925.78
399.742	5968.09
399.963	6005.53
400.184	6038.16
400.404	6071.22
400.625	6104.71
400.845	6142.91
401.066	6183.89
401.286	6220.04
401.507	6255.82
401.727	6292
401.948	6327.51
402.168	6361.73
402.388	6393.75
402.609	6432.62
402.829	6470.25
403.05	6505.82
403.27	6536.2
403.49	6565.95
403.711	6604.75
403.931	6638.93
404.151	6674.82
404.372	6711.85
404.592	6745.2
404.812	6783.69
405.032	6820.36
405.253	6855.67
405.473	6890.18
405.693	6930.53
405.913	6966.49
406.133	7001.51
406.353	7038.11
406.574	7073.58
406.794	7108.51
407.014	7145.09
407.234	7178.98
407.454	7212.13
407.674	7244.58
407.894	7283.55
408.114	7318.6
408.334	7355.96
408.554	7393.84
408.774	7430.38
408.994	7467.96
409.214	7506.87
409.434	7544.24
409.654	7586.85
409.874	7625.11
410.094	7667.15
410.314	7699.65
410.534	7738.18
410.754	7778.98
410.974	7814.65
411.193	7854.44
411.413	7894.73
411.633	7932.64
411.853	7971.85
412.073	8005.2
412.292	8044.25
412.512	8086.55
412.732	8132.25
412.952	8168.53
413.171	8208.45
413.391	8251.6
413.611	8293.31
413.831	8332.07
414.05	8376.84
414.27	8419.87
414.489	8463.07
414.709	8509.04
414.929	8547.02
415.148	8584.42
415.368	8631.02
415.587	8671.93
415.807	8712.51
416.026	8751.44
416.246	8797.65
416.465	8842.67
416.685	8884.04
416.904	8930.16
417.124	8969.73
417.343	9021.67
417.563	9068.05
417.782	9119.13
418.002	9166.82
418.221	9208.25
418.44	9255.91
418.66	9299.38
418.879	9341.71
419.098	9385.62
419.318	9428.8
419.537	9476.95
419.756	9518.6
419.976	9564.24
420.195	9602.31
420.414	9642.96
420.633	9689.4
420.853	9730.29
421.072	9770.2
421.291	9814.71
421.51	9858.24
421.729	9901.33
421.948	9939.6
422.168	9974.16
422.387	10014.05
422.606	10052.44
422.825	10101.49
423.044	10145.76
423.263	10190.36
423.482	10236.04
423.701	10277.93
423.92	10323.89
424.139	10372.29
424.358	10416.18
424.577	10463.55
424.796	10511.91
425.015	10562.15
425.234	10601.8
425.453	10649.25
425.672	10696.09
425.891	10740.95
426.11	10784.87
426.328	10825.85
426.547	10867.35
426.766	10916.25
426.985	10966.13
427.204	11012.29
427.422	11058.69
427.641	11107.85
427.86	11154.04
428.079	11204.36
428.297	11251.73
428.516	11301.93
428.735	11359.36
428.954	11408.6
429.172	11453.69
429.391	11507.2
429.61	11559.15
429.828	11606.31
430.047	11651.82
430.265	11698.35
430.484	11742.71
430.703	11785.02
430.921	11831.98
431.14	11874.24
431.358	11920.24
431.577	11966.95
431.795	12008.87
432.014	12052.89
432.232	12103.44
432.451	12152.24
432.669	12199.89
432.887	12248.15
433.106	12296.16
433.324	12343.49
433.543	12388.51
433.761	12434.42
433.979	12486.04
434.198	12529.38
434.416	12576.78
434.634	12619.42
434.853	12664.91
435.071	12714.13
435.289	12764.35
435.507	12812.56
435.726	12856.58
435.944	12908.18
436.162	12954.16
436.38	13005.09
436.598	13054.31
436.817	13097.56
437.035	13144.25
437.253	13192.76
437.471	13235.44
437.689	13282.8
437.907	13337.44
438.125	13384.73
438.343	13427.04
438.561	13476.2
438.78	13522.33
438.998	13574.85
439.216	13628.75
439.434	13671.64
439.652	13716.71
439.869	13767.8
440.087	13814.4
440.305	13861.69
440.523	13913.31
440.741	13964.38
440.959	14015.51
441.177	14066.29
441.395	14111.65
441.613	14157.13
441.831	14214.04
442.048	14269.04
442.266	14313.93
442.484	14359.71
442.702	14406.78
442.919	14454.95
443.137	14505.13
443.355	14552.33
443.573	14595.62
443.79	14646.62
444.008	14697.29
444.226	14745.75
444.443	14790.44
444.661	14843.33
444.879	14889.62
445.096	14940.47
445.314	14995.67
445.532	15040.2
445.749	15087.15
445.967	15137.16
446.184	15183.67
446.402	15231.27
446.619	15281.78
446.837	15332.53
447.054	15380.93
447.272	15429.95
447.489	15475.18
447.707	15518.82
447.924	15571.56
448.141	15623.38
448.359	15664.33
448.576	15710.11
448.794	15759.87
449.011	15807.42
449.228	15857.95
449.446	15907.33
449.663	15956.13
449.88	15999.82
450.098	16041.15
450.315	16083.4
450.532	16127.36
450.749	16181.69
450.967	16233.31
451.184	16282.62
451.401	16326.67
451.618	16370.49
451.835	16411.95
452.052	16462.87
452.27	16514.45
452.487	16563.75
452.704	16606.15
452.921	16658.09
453.138	16705.31
453.355	16755.07
453.572	16799.07
453.789	16852.29
454.006	16895.55
454.223	16948.98
454.44	16994.58
454.657	17039.67
454.874	17086.85
455.091	17140.22
455.308	17180.38
455.525	17228.87
455.742	17273.2
455.959	17321.2
456.176	17360.18
456.393	17407.42
456.609	17454.73
456.826	17503.27
457.043	17558.67
457.26	17611.78
457.477	17660.65
457.693	17715.84
457.91	17757.02
458.127	17802.07
458.344	17845.35
458.56	17892.53
458.777	17935.11
458.994	17978.05
459.21	18020.2
459.427	18055.15
459.644	18090.09
459.86	18125.25
460.077	18155.18
460.294	18192.71
460.51	18222.64
460.727	18254.02
460.943	18286.42
461.16	18328.75
461.376	18360.89
461.593	18393.29
461.809	18432.16
462.026	18471.53
462.242	18510.33
462.459	18553.07
462.675	18598.38
462.892	18640.95
463.108	18685.56
463.324	18727.42
463.541	18764.69
463.757	18805.27
463.974	18856.09
464.19	18895.93
464.406	18936.6
464.623	18979.07
464.839	19033.24
465.055	19076.35
465.271	19123.45
465.488	19171.98
465.704	19219.11
465.92	19266.47
466.136	19317.36
466.353	19368.05
466.569	19420.6
466.785	19482.38
467.001	19548.45
467.217	19595.16
467.433	19644.8
467.649	19702.11
467.865	19760
468.082	19821.65
468.298	19890.47
468.514	19953.71
468.73	20006.84
468.946	20070.82
469.162	20129.51
469.378	20189.45
469.594	20253.69
469.81	20325.55
470.026	20398.15
470.242	20462.04
470.457	20524.89
470.673	20593.35
470.889	20655.4
471.105	20725.49
471.321	20791.35
471.537	20854.07
471.753	20916.51
471.968	20989.11
472.184	21063.33
472.4	21124.98
472.616	21198.13
472.832	21273.09
473.047	21344.93
473.263	21416.45
473.479	21492.6
473.694	21572.55
473.91	21645.4
474.126	21720.89
474.341	21796.76
474.557	21863.29
474.773	21929
474.988	22005.58
475.204	22083.62
475.42	22148.8
475.635	22220.04
475.851	22292.87
476.066	22356.75
476.282	22424.76
476.497	22493.29
476.713	22554.27
476.928	22625.35
477.144	22704.18
477.359	22765.31
477.575	22831.84
477.79	22896
478.005	22960.07
478.221	23016.95
478.436	23080.91
478.651	23148.64
478.867	23212.2
479.082	23277.55
479.297	23337.93
479.513	23396.69
479.728	23451.33
479.943	23493.09
480.159	23552.27
480.374	23613.78
480.589	23666
480.804	23715.91
481.019	23771.42
481.235	23811.29
481.45	23854.93
481.665	23905.73
481.88	23948.27
482.095	23996.31
482.31	24061.45
482.525	24110.67
482.741	24156.82
482.956	24205.09
483.171	24252.85
483.386	24301.4
483.601	24347.93
483.816	24393.31
484.031	24436.25
484.246	24489.58
484.461	24534.91
484.676	24576.85
484.891	24623.36
485.105	24669.53
485.32	24721.47
485.535	24766.73
485.75	24805.33
485.965	24856.31
486.18	24897.69
486.395	24938.65
486.609	24971.36
486.824	25015.45
487.039	25055.11
487.254	25093.69
487.469	25132.93
487.683	25168.31
487.898	25210.31
488.113	25243.44
488.327	25282.62
488.542	25324.09
488.757	25361.27
488.972	25408.04
489.186	25438.8
489.401	25468.62
489.615	25499.71
489.83	25533.73
490.045	25564.31
490.259	25590.36
490.474	25630.58
490.688	25662.47
490.903	25690.18
491.117	25720.33
491.332	25740.75
491.546	25784.16
491.761	25819.65
491.975	25851.31
492.19	25887.82
492.404	25923.8
492.618	25955.05
492.833	25985.93
493.047	26015.95
493.262	26052.33
493.476	26083.16
493.69	26121.11
493.905	26148.78
494.119	26178.07
494.333	26213.42
494.547	26240.85
494.762	26263.07
494.976	26292.87
495.19	26316.38
495.404	26348.15
495.619	26376.49
495.833	26398.33
496.047	26418.65
496.261	26436.98
496.475	26455.47
496.689	26457.4
496.903	26453.45
497.117	26458.29
497.332	26454.49
497.546	26453.2
497.76	26442.42
497.974	26430.11
498.188	26425.35
498.402	26416.33
498.616	26402.29
498.83	26387.67
499.044	26379.69
499.258	26386.4
499.472	26386.96
499.685	26391.78
499.899	26389.87
500.113	26396.78
500.327	26410.09
500.541	26421.24
500.755	26432.58
500.969	26454.85
501.183	26470.78
501.396	26493.18
501.61	26503.07
501.824	26520.76
502.038	26540.35
502.251	26568.96
502.465	26587.24
502.679	26597.78
502.892	26610.49
503.106	26628.05
503.32	26643.6
503.533	26662.27
503.747	26679.05
503.961	26706.65
504.174	26731.62
504.388	26760.71
504.602	26787.42
504.815	26820.2
505.029	26871.09
505.242	26921.76
505.456	26969.76
505.669	27016.24
505.883	27070.02
506.096	27126.89
506.31	27182.64
506.523	27239.55
506.736	27304.4
506.95	27356.98
507.163	27412.82
507.377	27459.51
507.59	27508.09
507.803	27567.2
508.017	27629.65
508.23	27688.15
508.443	27757.31
508.657	27819.07
508.87	27881.96
509.083	27944.47
509.296	28014.62
509.51	28091.78
509.723	28171.16
509.936	28249.56
510.149	28338.87
510.363	28418.02
510.576	28503.75
510.789	28590.82
511.002	28677.67
511.215	28780.65
511.428	28877.62
511.641	28987.42
511.854	29089.16
512.067	29189.69
512.28	29302.4
512.493	29397
512.707	29507.22
512.92	29620.09
513.132	29726.47
513.345	29839.4
513.558	29950.69
513.771	30052.69
513.984	30153.31
514.197	30263.42
514.41	30375.95
514.623	30479.2
514.836	30589.07
515.049	30701.09
515.262	30808.04
515.474	30913.33
515.687	31019.53
515.9	31112.35
516.113	31210.8
516.325	31317.55
516.538	31406.13
516.751	31498.16
516.964	31589.96
517.176	31676.75
517.389	31756.51
517.602	31839.18
517.814	31913.35
518.027	31993.89
518.24	32075.96
518.452	32160.09
518.665	32232.11
518.877	32315.35
519.09	32383.4
519.303	32455.58
519.515	32529.45
519.728	32598.42
519.94	32669.75
520.153	32748.56
520.365	32818.4
520.578	32884.42
520.79	32952.91
521.002	33016.71
521.215	33083.24
521.427	33148.2
521.64	33202.65
521.852	33262.53
522.064	33324.27
522.277	33371.45
522.489	33424.71
522.701	33473.91
522.914	33522.36
523.126	33569.58
523.338	33616.95
523.551	33655.47
523.763	33712.42
523.975	33763.27
524.187	33815.4
524.399	33856.02
524.612	33907.55
524.824	33955.15
525.036	34009.13
525.248	34057.09
525.46	34105.62
525.672	34150.58
525.884	34193.24
526.096	34226.6
526.308	34260.98
526.521	34290.09
526.733	34319.42
526.945	34349.65
527.157	34378.47
527.369	34410.45
527.581	34434.67
527.793	34460.29
528.004	34487.71
528.216	34510.73
528.428	34536.38
528.64	34569.56
528.852	34593.25
529.064	34634.69
529.276	34662.44
529.488	34683.93
529.699	34707.18
529.911	34738.15
530.123	34766.84
530.335	34794.84
530.547	34835.29
530.758	34867.64
530.97	34896.84
531.182	34929.07
531.393	34961.02
531.605	34997.18
531.817	35033.29
532.029	35059.07
532.24	35086.84
532.452	35116.96
532.663	35142.42
532.875	35161.89
533.087	35183.25
533.298	35212.8
533.51	35241.78
533.721	35257.58
533.933	35280.64
534.144	35291.71
534.356	35308.09
534.567	35325.96
534.779	35339.29
534.99	35359.25
535.202	35389.18
535.413	35412.09
535.624	35427.25
535.836	35448.51
536.047	35466.11
536.259	35472.25
536.47	35502.98
536.681	35516.35
536.893	35549.4
537.104	35566.56
537.315	35587.27
537.526	35595.69
537.738	35609.82
537.949	35619.11
538.16	35631.58
538.371	35658.47
538.582	35681.71
538.794	35697.4
539.005	35716.04
539.216	35723.09
539.427	35741.38
539.638	35751.29
539.849	35778.73
540.06	35793.95
540.272	35825.38
540.483	35841.55
540.694	35856.07
540.905	35876
541.116	35890.64
541.327	35907.33
541.538	35922.04
541.749	35937.13
541.96	35950.31
542.17	35954.53
542.381	35970.98
542.592	35974.58
542.803	35981.8
543.014	35980.71
543.225	35982.47
543.436	35987.71
543.647	35996.36
543.857	35999.09
544.068	36006.04
544.279	36019.98
544.49	36016.91
544.701	36018.31
544.911	36032.93
545.122	36054.36
545.333	36070.07
545.543	36082.47
545.754	36084
545.965	36100.09
546.175	36114.82
546.386	36124.87
546.597	36131.85
546.807	36160.29
547.018	36176.36
547.229	36186.64
547.439	36186.25
547.65	36186.87
547.86	36194.58
548.071	36212.31
548.281	36212.96
548.492	36218.55
548.702	36220.22
548.913	36231.07
549.123	36231.65
549.333	36235.93
549.544	36236.25
549.754	36244.69
549.965	36263.09
550.175	36278.85
550.385	36289.36
550.596	36307.95
550.806	36314.49
551.016	36336.27
551.227	36348.89
551.437	36359.02
551.647	36372.45
551.857	36385.55
552.068	36406.87
552.278	36418.07
552.488	36422.09
552.698	36429.13
552.908	36442.24
553.119	36453.13
553.329	36460.38
553.539	36464.04
553.749	36463
553.959	36465.6
554.169	36462.76
554.379	36461.02
554.589	36462.31
554.799	36466.02
555.009	36471.8
555.219	36460.91
555.429	36470.76
555.639	36465.07
555.849	36460.44
556.059	36457.89
556.269	36459.07
556.479	36457.69
556.689	36448.58
556.899	36448.8
557.109	36451.96
557.319	36456.64
557.528	36462.75
557.738	36458.27
557.948	36466.6
558.158	36458.2
558.368	36464.35
558.577	36455.84
558.787	36458.67
558.997	36453.91
559.207	36451.87
559.416	36434.75
559.626	36415.42
559.836	36397.33
560.045	36387.4
560.255	36384.16
560.465	36386.04
560.674	36379.84
560.884	36385.91
561.093	36387.8
561.303	36385.02
561.512	36375.96
561.722	36382.35
561.932	36377.6
562.141	36385.96
562.351	36385.89
562.56	36374.27
562.769	36384.49
562.979	36385.55
563.188	36391.31
563.398	36381.93
563.607	36383.56
563.817	36379.53
564.026	36376.56
564.235	36382.45
564.445	36376.38
564.654	36367.49
564.863	36355.36
565.073	36347.45
565.282	36346.16
565.491	36320.47
565.7	36321.4
565.91	36316.02
566.119	36309.73
566.328	36300.55
566.537	36291.53
566.746	36283.65
566.956	36284.16
567.165	36287.09
567.374	36276.45
567.583	36262.16
567.792	36251.35
568.001	36240.16
568.21	36226.64
568.419	36204.58
568.628	36184.95
568.837	36156.56
569.046	36132.53
569.255	36110.07
569.464	36083.29
569.673	36051.31
569.882	36023.8
570.091	36000.87
570.3	35980.13
570.509	35954.85
570.718	35947.67
570.927	35940.51
571.135	35936.89
571.344	35927.69
571.553	35917
571.762	35914.51
571.971	35917.75
572.18	35916.36
572.388	35914.04
572.597	35900.38
572.806	35893.95
573.014	35879.95
573.223	35861.2
573.432	35841.29
573.641	35832.11
573.849	35802.98
574.058	35780.85
574.266	35747.4
574.475	35722.91
574.684	35705.98
574.892	35701.47
575.101	35685.73
575.309	35679.98
575.518	35665.22
575.726	35656.62
575.935	35641.13
576.143	35637.82
576.352	35620.44
576.56	35612.51
576.769	35601.53
576.977	35592.2
577.186	35564.91
577.394	35542.89
577.602	35516.29
577.811	35498.2
578.019	35486.47
578.228	35471.53
578.436	35455.04
578.644	35446.35
578.852	35437.65
579.061	35414.15
579.269	35395.56
579.477	35374.85
579.685	35358.76
579.894	35341.27
580.102	35325.04
580.31	35304.29
580.518	35286.49
580.726	35271.02
580.935	35248.11
581.143	35225.22
581.351	35208.4
581.559	35177.42
581.767	35152.85
581.975	35135.62
582.183	35115.65
582.391	35092.27
582.599	35070.67
582.807	35052.13
583.015	35030.89
583.223	35018.89
583.431	35001.02
583.639	34987.58
583.847	34974.76
584.055	34959.42
584.263	34939.95
584.471	34917.13
584.678	34904.64
584.886	34882.78
585.094	34863.07
585.302	34842.78
585.51	34814.49
585.718	34792.67
585.925	34770.95
586.133	34755.35
586.341	34741.69
586.549	34732.73
586.756	34713.84
586.964	34694.49
587.172	34675.38
587.379	34651.53
587.587	34623.87
587.795	34604.09
588.002	34578.85
588.21	34551.8
588.417	34518.42
588.625	34488.24
588.833	34460.56
589.04	34430.44
589.248	34405.96
589.455	34384.09
589.663	34357.75
589.87	34338.45
590.078	34314
590.285	34294.27
590.492	34282.75
590.7	34267.31
590.907	34240.98
591.115	34196.29
591.322	34182.27
591.529	34157.96
591.737	34132.87
591.944	34114.47
592.151	34090.35
592.359	34064.33
592.566	34037.04
592.773	33994.2
592.981	33971.13
593.188	33945.15
593.395	33936.33
593.602	33912.96
593.809	33880.24
594.017	33844.53
594.224	33809.13
594.431	33786.27
594.638	33757.11
594.845	33724.76
595.052	33707.64
595.259	33683.71
595.466	33665.51
595.673	33635.53
595.88	33613.64
596.088	33595.71
596.295	33575.67
596.502	33553.64
596.709	33520.65
596.915	33501.91
597.122	33482.93
597.329	33463.44
597.536	33435.2
597.743	33411.84
597.95	33391.42
598.157	33361.49
598.364	33319.36
598.571	33277.93
598.777	33233
598.984	33196.67
599.191	33136.4
599.398	33083.22
599.605	33036.2
599.811	32997.16
600.018	32941.05
600.225	32879.8
600.431	32827.47
600.638	32793.38
600.845	32768.51
601.052	32746.29
601.258	32705.69
601.465	32674.75
601.671	32626.65
601.878	32551.64
602.085	32462.15
602.291	32370.47
602.498	32263.76
602.704	32125.78
602.911	31971.55
603.117	31786.6
603.324	31575.11
603.53	31348.58
603.737	31123.45
603.943	30896.67
604.15	30654.64
604.356	30404.2
604.562	30153.15
604.769	29891.29
604.975	29630.38
605.181	29366.15
605.388	29105.53
605.594	28847.73
605.8	28595.64
606.007	28323.4
606.213	28044.15
606.419	27776.89
606.625	27502.15
606.832	27228.29
607.038	26965.65
607.244	26694.15
607.45	26423.15
607.656	26147.95
607.863	25864.07
608.069	25582.91
608.275	25306.93
608.481	25028.44
608.687	24744.4
608.893	24468.58
609.099	24182.69
609.305	23897.35
609.511	23615.65
609.717	23325.73
609.923	23023.4
610.129	22734.16
610.335	22436.82
610.541	22136.55
610.747	21834.42
610.953	21528.49
611.159	21217.84
611.365	20900.27
611.571	20578.67
611.776	20255.05
611.982	19927.22
612.188	19611.42
612.394	19291.65
612.6	18967.96
612.806	18643.71
613.011	18317.24
613.217	17989.6
613.423	17664.55
613.628	17347.35
613.834	17029.18
614.04	16720.87
614.246	16418.71
614.451	16121.4
614.657	15822.36
614.862	15535.95
615.068	15256.58
615.274	14983.29
615.479	14717.85
615.685	14459.53
615.89	14201.13
616.096	13946.62
616.301	13688.67
616.507	13426.58
616.712	13163.98
616.918	12900.98
617.123	12628.84
617.329	12352.82
617.534	12074.33
617.74	11794.93
617.945	11507.27
618.15	11209.49
618.356	10738.05
618.561	9873.85
618.766	8832.85
618.972	7758.51
619.177	6711.22
619.382	5694.56
619.588	4700.65
619.793	4109.34
619.998	3417.13
620.203	2582.92
620.408	1572.57
620.614	585.6
