Data from test1_MAYP1115451__3__10-14-38-726.txt Node

Date: Wed Jun 12 10:14:38 MDT 2024
User: Modes Lab
Spectrometer: MAYP111545
Trigger mode: 0
Integration Time (sec): 8.000000E-3
Scans to average: 5
Electric dark correction enabled: true
Nonlinearity correction enabled: false
Boxcar width: 5
XAxis mode: Wavelengths
Number of Pixels in Spectrum: 2068
>>>>>Begin Spectral Data<<<<<
165.214	163
165.449	162.9
165.683	171.73
165.918	180.44
166.152	186.49
166.387	191.08
166.621	123.53
166.856	162.08
167.09	180.97
167.325	203.97
167.559	220.95
167.794	235.48
168.028	243.17
168.263	245.48
168.497	245.7
168.732	246.81
168.966	249.06
169.2	250.01
169.435	252.08
169.669	253.39
169.903	255.42
170.138	256.33
170.372	257.48
170.606	259.08
170.841	259.7
171.075	261.06
171.309	262.88
171.544	263.53
171.778	265.84
172.012	267.33
172.246	269.1
172.48	270.9
172.715	273.48
172.949	275.44
173.183	277.46
173.417	279.13
173.651	281.44
173.885	282.61
174.119	283.12
174.354	283.52
174.588	283.33
174.822	283.97
175.056	283.5
175.29	282.81
175.524	282.37
175.758	282.37
175.992	281.72
176.226	281.13
176.46	281.79
176.694	283.77
176.928	283.84
177.162	285.64
177.396	285.46
177.63	287.57
177.864	289.21
178.097	290.5
178.331	291.13
178.565	292.82
178.799	292.97
179.033	293.84
179.267	294.3
179.5	294.57
179.734	295.48
179.968	297.37
180.202	297.92
180.436	298.53
180.669	299.26
180.903	299.95
181.137	300.77
181.371	302.93
181.604	303.28
181.838	303.95
182.072	306.37
182.305	306.57
182.539	307.1
182.772	307.39
183.006	308.62
183.24	308.97
183.473	312.15
183.707	313.13
183.94	313.02
184.174	314.46
184.408	315.19
184.641	316.24
184.875	317.81
185.108	319.61
185.342	321.79
185.575	323.02
185.808	325.64
186.042	326.39
186.275	327.39
186.509	329.53
186.742	331.75
186.976	334.12
187.209	335.26
187.442	336.46
187.676	337.01
187.909	338.06
188.142	339.13
188.376	339.77
188.609	339.57
188.842	342.24
189.076	342.93
189.309	343.15
189.542	344.1
189.775	345.5
190.009	347.17
190.242	349.13
190.475	350.08
190.708	351.79
190.941	353.81
191.174	355.7
191.408	356.62
191.641	358.35
191.874	360.13
192.107	361.77
192.34	364.32
192.573	365.62
192.806	367.82
193.039	369.92
193.272	371.81
193.505	372.95
193.738	374.93
193.971	376.62
194.204	378.75
194.437	380.33
194.67	382.44
194.903	383.46
195.136	385.3
195.369	387.26
195.602	388.28
195.835	390.24
196.068	393.08
196.301	395.13
196.533	396.97
196.766	399.02
196.999	401.22
197.232	403.7
197.465	405.84
197.698	408.37
197.93	409.24
198.163	412.72
198.396	413.81
198.629	416.06
198.861	417.62
199.094	420.1
199.327	422.17
199.559	424.97
199.792	425.9
200.025	429.3
200.257	431.97
200.49	434.75
200.723	436.77
200.955	440.46
201.188	442.33
201.42	444.41
201.653	447.79
201.886	450.28
202.118	452.21
202.351	454.68
202.583	456.24
202.816	457.08
203.048	460.53
203.281	462.17
203.513	462.9
203.745	465.75
203.978	469.12
204.21	471.15
204.443	473.44
204.675	475.08
204.907	478.28
205.14	480.22
205.372	482.75
205.605	484.24
205.837	486.79
206.069	489.55
206.302	490.57
206.534	492.35
206.766	492.88
206.998	495.93
207.231	499.08
207.463	501.15
207.695	504.04
207.927	507.17
208.159	509.44
208.392	511.02
208.624	513.88
208.856	515.82
209.088	518.93
209.32	521.17
209.552	522.5
209.784	524.12
210.017	526.32
210.249	528.19
210.481	529.92
210.713	532.44
210.945	535.73
211.177	538.42
211.409	540.9
211.641	541.7
211.873	545.19
212.105	548.15
212.337	548.75
212.569	551.15
212.801	551.97
213.033	553.1
213.264	554.37
213.496	555.22
213.728	555.28
213.96	556.92
214.192	559.41
214.424	561.22
214.656	562.13
214.887	566.55
215.119	568.46
215.351	570.5
215.583	572.13
215.815	574.37
216.046	576.26
216.278	578.59
216.51	580.13
216.741	580.92
216.973	581.75
217.205	584.12
217.436	585.1
217.668	587.02
217.9	588.92
218.131	590.53
218.363	590.79
218.595	593.62
218.826	594.72
219.058	596.48
219.289	598.3
219.521	600.04
219.752	601.64
219.984	602.73
220.215	603.5
220.447	604.79
220.678	605.08
220.91	607.12
221.141	607.61
221.373	610.08
221.604	611.64
221.836	613.26
222.067	615.52
222.298	616.04
222.53	617.33
222.761	617.35
222.993	617.95
223.224	619.81
223.455	621.57
223.686	622.73
223.918	623.06
224.149	624.55
224.38	624.72
224.612	624.19
224.843	624.64
225.074	624.81
225.305	625.97
225.536	626.59
225.768	627.28
225.999	626.95
226.23	627.97
226.461	628.57
226.692	628.81
226.923	630.7
227.155	631.97
227.386	632.66
227.617	633.06
227.848	633.08
228.079	634.88
228.31	636.66
228.541	637.15
228.772	637.46
229.003	636.93
229.234	637.33
229.465	636.72
229.696	635.42
229.927	634.42
230.158	635.75
230.389	635.77
230.62	635.37
230.85	634.41
231.081	633.88
231.312	631.92
231.543	632.06
231.774	632.48
232.005	632.59
232.236	633.5
232.466	633.9
232.697	633.79
232.928	635.24
233.159	635.02
233.389	635.39
233.62	635.82
233.851	637.84
234.082	638.35
234.312	636.82
234.543	636.12
234.774	635.33
235.004	636.59
235.235	635.97
235.466	634.68
235.696	634.82
235.927	635.61
236.157	635.42
236.388	635.62
236.618	634.79
236.849	635.3
237.08	635.01
237.31	634.84
237.541	633.32
237.771	632.21
238.002	632.42
238.232	632.33
238.463	632.22
238.693	632.22
238.923	631.61
239.154	632.57
239.384	632.22
239.615	631.81
239.845	630.68
240.075	631.92
240.306	631.81
240.536	630.61
240.766	629.95
240.997	629.39
241.227	628.24
241.457	626.41
241.687	625.33
241.918	626.13
242.148	625.92
242.378	626.88
242.608	623.52
242.839	623.02
243.069	622.22
243.299	620.81
243.529	621.5
243.759	622.26
243.989	622.22
244.22	621.72
244.45	619.68
244.68	620.1
244.91	619.39
245.14	621.37
245.37	620.66
245.6	621.95
245.83	620.77
246.06	619.33
246.29	619.15
246.52	618.88
246.75	619.46
246.98	619.19
247.21	619.3
247.44	617.97
247.67	616.21
247.9	616.68
248.13	615.13
248.359	616.1
248.589	614.21
248.819	613.5
249.049	613.04
249.279	611.08
249.509	610.28
249.738	609.55
249.968	609.81
250.198	609.68
250.428	608.9
250.657	608.22
250.887	608.08
251.117	606.92
251.347	605.13
251.576	604.22
251.806	604.28
252.036	604.17
252.265	602.59
252.495	602.72
252.725	602.04
252.954	602.04
253.184	600.72
253.413	600.12
253.643	600.32
253.873	599.22
254.102	597.62
254.332	597.17
254.561	596.35
254.791	596.33
255.02	595.06
255.25	594.61
255.479	592.46
255.708	592.95
255.938	591.22
256.167	590.9
256.397	590.35
256.626	590.88
256.856	590.92
257.085	590.15
257.314	589.26
257.544	588.95
257.773	588.73
258.002	589.81
258.232	588.04
258.461	587.81
258.69	587.1
258.919	585.93
259.149	584.79
259.378	582.75
259.607	581.82
259.836	580.61
260.065	579.22
260.295	578.21
260.524	576.21
260.753	576.24
260.982	575.17
261.211	573.52
261.44	573.72
261.669	572.79
261.899	572.39
262.128	571.32
262.357	570.84
262.586	570.21
262.815	569.53
263.044	568.9
263.273	569.9
263.502	569.99
263.731	570.19
263.96	568.99
264.189	568.64
264.418	567.79
264.646	568.92
264.875	568.24
265.104	566.79
265.333	566.79
265.562	565.5
265.791	562.93
266.02	560.52
266.249	558.53
266.477	558.17
266.706	557.55
266.935	556.39
267.164	553.55
267.393	553.08
267.621	553.59
267.85	551.61
268.079	550.81
268.307	550.26
268.536	550.42
268.765	550.39
268.993	549.35
269.222	548.59
269.451	549.24
269.679	550.19
269.908	550.26
270.137	549.37
270.365	549.86
270.594	549.77
270.822	549.1
271.051	549.61
271.279	549.73
271.508	550.46
271.736	551.12
271.965	550.12
272.193	551.15
272.422	550.32
272.65	551.02
272.879	549.59
273.107	549.48
273.336	548.93
273.564	548.02
273.792	547.08
274.021	546.66
274.249	545.24
274.477	544.9
274.706	542.1
274.934	540.81
275.162	538.42
275.391	538.15
275.619	537.3
275.847	536.12
276.075	534.08
276.304	534.41
276.532	533.32
276.76	531.66
276.988	529.77
277.216	528.99
277.445	528.68
277.673	528.17
277.901	527.41
278.129	526.66
278.357	526.12
278.585	527.97
278.813	526.44
279.041	525.35
279.269	525.5
279.497	525.81
279.725	525.1
279.954	523.48
280.182	523.12
280.41	522.92
280.637	522.1
280.865	521.37
281.093	519.66
281.321	518.81
281.549	518.95
281.777	518.1
282.005	517.33
282.233	518.04
282.461	518.08
282.689	517.52
282.916	517.75
283.144	518.59
283.372	518.1
283.6	516.77
283.828	516.62
284.055	515.52
284.283	514.41
284.511	514.81
284.739	513.82
284.966	511.95
285.194	512.39
285.422	510.44
285.649	509.37
285.877	509.92
286.105	511.17
286.332	510.15
286.56	509.32
286.788	510.02
287.015	508.95
287.243	508.53
287.47	508.92
287.698	506.57
287.925	506.02
288.153	505.33
288.381	505.17
288.608	504.22
288.836	503.68
289.063	504.01
289.29	503.52
289.518	502.72
289.745	501.9
289.973	502.19
290.2	502.52
290.428	502.75
290.655	502.12
290.882	500.77
291.11	500.17
291.337	499.32
291.564	498.08
291.792	496.39
292.019	495.42
292.246	495.59
292.473	494.33
292.701	495.24
292.928	495.04
293.155	495.06
293.382	494.06
293.61	493.3
293.837	492.55
294.064	492.75
294.291	491.5
294.518	491.66
294.745	489.7
294.972	490.28
295.2	488.95
295.427	487.88
295.654	487.66
295.881	487.3
296.108	485.46
296.335	486.52
296.562	486.9
296.789	488.28
297.016	487.88
297.243	487.77
297.47	486.37
297.697	485.28
297.924	484.35
298.151	482.46
298.378	481.46
298.604	481.42
298.831	481.22
299.058	479.52
299.285	478.39
299.512	478.01
299.739	477.42
299.966	477.35
300.192	477.06
300.419	477.24
300.646	477.19
300.873	476.81
301.099	476.24
301.326	474.95
301.553	474.15
301.78	475.33
302.006	474.24
302.233	473.95
302.46	473.26
302.686	472.44
302.913	471.33
303.14	470.59
303.366	470.28
303.593	470.08
303.819	469.79
304.046	469.81
304.272	467.95
304.499	467.79
304.725	468.04
304.952	467.7
305.179	467.13
305.405	467.59
305.631	468.12
305.858	469.39
306.084	468.59
306.311	468.24
306.537	467.82
306.764	467.08
306.99	466.79
307.216	465.66
307.443	465.48
307.669	465.37
307.895	464.28
308.122	462.42
308.348	461.41
308.574	461.13
308.801	460.92
309.027	460.12
309.253	459.22
309.479	459.39
309.706	459.26
309.932	457.66
310.158	457.12
310.384	457.3
310.61	458.48
310.837	458.15
311.063	458.61
311.289	458.82
311.515	459.37
311.741	459.75
311.967	458.95
312.193	458.97
312.419	459.9
312.645	460.53
312.871	459.82
313.097	459.57
313.323	460.04
313.549	462.13
313.775	461.73
314.001	461.52
314.227	462.62
314.453	463.44
314.679	463.75
314.905	464.53
315.131	464.72
315.357	465.95
315.583	466.81
315.809	466.66
316.034	465.06
316.26	465.5
316.486	465.44
316.712	465.57
316.938	465.17
317.163	466.06
317.389	466.19
317.615	466.9
317.841	467.9
318.066	466.82
318.292	467.24
318.518	468.9
318.743	468.7
318.969	471.39
319.195	471.68
319.42	472.12
319.646	473.13
319.872	473.37
320.097	473.48
320.323	473.37
320.548	475.37
320.774	476.32
320.999	476.28
321.225	478.52
321.45	478.19
321.676	479.28
321.901	481.59
322.127	482.19
322.352	484.66
322.578	486.5
322.803	488.46
323.029	489.55
323.254	491.06
323.479	491.97
323.705	492.53
323.93	494.37
324.155	497.28
324.381	498.73
324.606	500.86
324.831	503.21
325.057	506.02
325.282	506.72
325.507	509.62
325.732	512.08
325.958	515.41
326.183	519.01
326.408	521.3
326.633	524.26
326.858	526.99
327.084	529.08
327.309	532.26
327.534	534.39
327.759	537.81
327.984	541.04
328.209	543.5
328.434	545.88
328.659	548.84
328.884	553.15
329.109	554.28
329.334	557.55
329.559	560.95
329.784	562.48
330.009	566.28
330.234	569.95
330.459	573.02
330.684	578.5
330.909	583.17
331.134	586.39
331.359	589.57
331.584	595.24
331.809	599.17
332.034	604.08
332.259	608.13
332.483	613.17
332.708	618.46
332.933	622.08
333.158	625.08
333.383	629.22
333.607	634.37
333.832	638.99
334.057	643.32
334.282	648.26
334.506	653.19
334.731	658.55
334.956	663.73
335.18	669.37
335.405	675.48
335.63	682.28
335.854	689.22
336.079	694.53
336.303	699.32
336.528	705.1
336.753	711.17
336.977	715.62
337.202	721.97
337.426	727.22
337.651	733.22
337.875	739.73
338.1	745.26
338.324	749.61
338.549	756.88
338.773	765.22
338.997	773.19
339.222	780.1
339.446	787.84
339.671	795.75
339.895	804.79
340.119	811.72
340.344	819.06
340.568	826.62
340.792	835.3
341.017	842.55
341.241	849.3
341.465	855.59
341.689	863.24
341.914	871.61
342.138	879.13
342.362	885.52
342.586	892.95
342.811	901.42
343.035	909.93
343.259	917.5
343.483	926.35
343.707	936.1
343.931	946.44
344.155	955.37
344.38	964.35
344.604	974.9
344.828	985.15
345.052	994.5
345.276	1003.66
345.5	1012.97
345.724	1024.17
345.948	1035.17
346.172	1045.32
346.396	1054.92
346.62	1066.64
346.844	1077.77
347.068	1086.41
347.292	1095.99
347.515	1108.75
347.739	1120.3
347.963	1129.21
348.187	1139.22
348.411	1149.06
348.635	1158.88
348.859	1170.41
349.082	1180.22
349.306	1189.39
349.53	1200.52
349.754	1210.08
349.977	1219.48
350.201	1228.93
350.425	1241.24
350.649	1252.52
350.872	1262.7
351.096	1274.12
351.32	1285.21
351.543	1296.22
351.767	1309.12
351.99	1320.3
352.214	1333.53
352.438	1344.97
352.661	1355.37
352.885	1369.39
353.108	1381.39
353.332	1393.93
353.555	1405.26
353.779	1416.48
354.002	1428.62
354.226	1439.66
354.449	1451.81
354.673	1462.35
354.896	1474.81
355.12	1487.93
355.343	1496.97
355.566	1508.46
355.79	1519.93
356.013	1533.73
356.237	1545.24
356.46	1559.79
356.683	1572.3
356.907	1585.28
357.13	1599.97
357.353	1611.57
357.576	1624.21
357.8	1639.24
358.023	1651.82
358.246	1666.28
358.469	1676.46
358.693	1689.33
358.916	1697.59
359.139	1710.73
359.362	1724.5
359.585	1736.48
359.808	1751.12
360.031	1763.39
360.255	1775.64
360.478	1787.06
360.701	1799.75
360.924	1814.81
361.147	1828.59
361.37	1845.66
361.593	1860.22
361.816	1872.13
362.039	1887.35
362.262	1901.66
362.485	1917.66
362.708	1931.3
362.931	1946.93
363.154	1958.68
363.377	1972.53
363.599	1987.32
363.822	1999.9
364.045	2012.84
364.268	2028.28
364.491	2040.28
364.714	2053.01
364.936	2068.79
365.159	2083.02
365.382	2097.41
365.605	2113.55
365.828	2129.39
366.05	2142.92
366.273	2159.93
366.496	2173.93
366.718	2188.33
366.941	2205.26
367.164	2222.13
367.386	2235.12
367.609	2251.24
367.832	2268.35
368.054	2284.46
368.277	2302.08
368.5	2315.82
368.722	2330.46
368.945	2348.13
369.167	2367.1
369.39	2382.61
369.612	2398.24
369.835	2414.97
370.057	2432.42
370.28	2451.01
370.502	2468.81
370.725	2483.06
370.947	2504.13
371.169	2523.44
371.392	2543.28
371.614	2557.86
371.837	2574.1
372.059	2590.46
372.281	2610.7
372.504	2628.42
372.726	2644.62
372.948	2660.86
373.171	2678.13
373.393	2692.52
373.615	2705.22
373.837	2722.53
374.06	2741.9
374.282	2762.86
374.504	2780.81
374.726	2797.32
374.948	2817.08
375.17	2834.77
375.393	2856.28
375.615	2879.22
375.837	2900.79
376.059	2924.84
376.281	2941.92
376.503	2960.3
376.725	2979.97
376.947	3002.21
377.169	3024.64
377.391	3040.93
377.613	3063.15
377.835	3084.33
378.057	3103.04
378.279	3122.97
378.501	3142.46
378.723	3166.86
378.945	3189.06
379.167	3212.44
379.389	3236.77
379.611	3257.48
379.833	3280.68
380.054	3303.99
380.276	3327.3
380.498	3349.44
380.72	3375.81
380.942	3397.79
381.163	3419.32
381.385	3443.92
381.607	3467.19
381.829	3489.04
382.05	3516.53
382.272	3547.13
382.494	3571.02
382.716	3596.5
382.937	3622.84
383.159	3649.53
383.381	3677.01
383.602	3705.26
383.824	3730.77
384.045	3755.75
384.267	3783.26
384.488	3808.95
384.71	3830.53
384.932	3856.39
385.153	3881.62
385.375	3909.15
385.596	3934.59
385.818	3966.88
386.039	3993.33
386.261	4022.42
386.482	4050.46
386.703	4078.46
386.925	4105.97
387.146	4134.64
387.368	4164.32
387.589	4191.53
387.81	4220.95
388.032	4251.3
388.253	4278.19
388.474	4308.84
388.696	4338.39
388.917	4367.79
389.138	4397.04
389.359	4426.59
389.581	4456.88
389.802	4484.86
390.023	4516.52
390.244	4547.44
390.465	4576.19
390.687	4604.3
390.908	4634.19
391.129	4666.64
391.35	4696.26
391.571	4729.9
391.792	4759.13
392.013	4795.19
392.234	4830.08
392.455	4862.62
392.677	4892.26
392.898	4926.41
393.119	4959.84
393.34	4992.64
393.561	5024.02
393.782	5059.5
394.003	5090.64
394.223	5125.79
394.444	5155.61
394.665	5184.57
394.886	5221.82
395.107	5260.66
395.328	5293.9
395.549	5331.57
395.77	5361.88
395.99	5393.13
396.211	5425.57
396.432	5459.32
396.653	5492.41
396.874	5527.81
397.094	5567.17
397.315	5597.24
397.536	5627.61
397.757	5660.06
397.977	5690.81
398.198	5729.32
398.419	5764.59
398.639	5800.26
398.86	5838.57
399.081	5875.01
399.301	5912.93
399.522	5946.19
399.742	5980.48
399.963	6016.81
400.184	6051.28
400.404	6085.17
400.625	6115.99
400.845	6153.42
401.066	6185.28
401.286	6214.15
401.507	6250.15
401.727	6284.55
401.948	6318.77
402.168	6351.75
402.388	6386.77
402.609	6423.48
402.829	6461.06
403.05	6497.68
403.27	6533.64
403.49	6572.1
403.711	6608.68
403.931	6644.81
404.151	6672.72
404.372	6710.28
404.592	6748.82
404.812	6785.24
405.032	6822.17
405.253	6859.57
405.473	6896.52
405.693	6932.22
405.913	6969.61
406.133	7005.64
406.353	7039.39
406.574	7077.86
406.794	7113.9
407.014	7147.35
407.234	7182.46
407.454	7216.68
407.674	7247.64
407.894	7286.01
408.114	7324.08
408.334	7359.62
408.554	7400.72
408.774	7441.12
408.994	7480.06
409.214	7515.04
409.434	7558.73
409.654	7598.1
409.874	7638.44
410.094	7678.72
410.314	7713.17
410.534	7746.35
410.754	7785.59
410.974	7818.37
411.193	7855.28
411.413	7891.75
411.633	7934.12
411.853	7970.15
412.073	8005.44
412.292	8041.7
412.512	8077.68
412.732	8120.55
412.952	8163.42
413.171	8208.12
413.391	8252.08
413.611	8293.92
413.831	8337.15
414.05	8374.32
414.27	8415.52
414.489	8457.19
414.709	8503.81
414.929	8547.3
415.148	8585.22
415.368	8630.13
415.587	8666.64
415.807	8708.55
416.026	8747.7
416.246	8792.93
416.465	8839.1
416.685	8881.57
416.904	8931.02
417.124	8974.46
417.343	9019.77
417.563	9063.97
417.782	9104.48
418.002	9149.44
418.221	9194.22
418.44	9241.61
418.66	9284.79
418.879	9324.3
419.098	9369.39
419.318	9406.57
419.537	9447.84
419.756	9494.33
419.976	9539.62
420.195	9582.53
420.414	9627.53
420.633	9668.7
420.853	9709.46
421.072	9752.17
421.291	9796.81
421.51	9839.62
421.729	9887.48
421.948	9932.46
422.168	9974.95
422.387	10022.01
422.606	10067.42
422.825	10106.46
423.044	10154.84
423.263	10200.93
423.482	10245.55
423.701	10292.21
423.92	10339.46
424.139	10382.52
424.358	10423.17
424.577	10467.99
424.796	10511.08
425.015	10559.01
425.234	10611.97
425.453	10653.44
425.672	10695.53
425.891	10736.57
426.11	10783.21
426.328	10826.77
426.547	10873.1
426.766	10926.26
426.985	10971.72
427.204	11022.17
427.422	11065.01
427.641	11109.88
427.86	11163.26
428.079	11211.75
428.297	11267.48
428.516	11314.66
428.735	11363.04
428.954	11416.39
429.172	11458.92
429.391	11512.59
429.61	11558.02
429.828	11609.5
430.047	11657.08
430.265	11699.73
430.484	11746.48
430.703	11790.48
430.921	11832.22
431.14	11877.64
431.358	11919.95
431.577	11967.53
431.795	12012.95
432.014	12062.04
432.232	12111.92
432.451	12158.86
432.669	12202.39
432.887	12247.06
433.106	12293.1
433.324	12343.52
433.543	12391.92
433.761	12434.72
433.979	12481.79
434.198	12529.42
434.416	12572.13
434.634	12614.61
434.853	12663.22
435.071	12714.41
435.289	12766.52
435.507	12812.22
435.726	12862.19
435.944	12908.28
436.162	12959.75
436.38	13004.81
436.598	13047.37
436.817	13099.02
437.035	13147.72
437.253	13193.66
437.471	13241.46
437.689	13292.72
437.907	13340.06
438.125	13386.32
438.343	13435.44
438.561	13488.88
438.78	13538.04
438.998	13590.39
439.216	13635.61
439.434	13679.33
439.652	13726.92
439.869	13772.17
440.087	13812.46
440.305	13861.81
440.523	13914.35
440.741	13960.48
440.959	14002.15
441.177	14054.84
441.395	14101.55
441.613	14150.61
441.831	14201.62
442.048	14250.42
442.266	14298.95
442.484	14351.33
442.702	14406.52
442.919	14452.19
443.137	14503.26
443.355	14550.77
443.573	14595.9
443.79	14641.66
444.008	14691.75
444.226	14743.79
444.443	14791.04
444.661	14839.13
444.879	14887.81
445.096	14931.52
445.314	14981.92
445.532	15032.19
445.749	15078.12
445.967	15127.75
446.184	15179.7
446.402	15223.75
446.619	15270.84
446.837	15320.28
447.054	15375.3
447.272	15420.9
447.489	15467.75
447.707	15508.06
447.924	15551.88
448.141	15610.01
448.359	15659.95
448.576	15712.41
448.794	15760.46
449.011	15808.37
449.228	15856.33
449.446	15900.02
449.663	15945.42
449.88	15996.79
450.098	16049.97
450.315	16099.01
450.532	16138.37
450.749	16183.99
450.967	16231.46
451.184	16287.32
451.401	16333.95
451.618	16384.08
451.835	16433.81
452.052	16489.55
452.27	16536.42
452.487	16584.64
452.704	16635.26
452.921	16681.24
453.138	16724.82
453.355	16768.15
453.572	16817.92
453.789	16868.06
454.006	16914.44
454.223	16961.53
454.44	17008.92
454.657	17054.41
454.874	17107.5
455.091	17151.84
455.308	17203.28
455.525	17257.86
455.742	17303.04
455.959	17345.53
456.176	17392.88
456.393	17438.12
456.609	17482.3
456.826	17528.17
457.043	17574.81
457.26	17617.7
457.477	17670.24
457.693	17717.82
457.91	17756.99
458.127	17804.12
458.344	17846.48
458.56	17889.35
458.777	17933.04
458.994	17972.59
459.21	18010.19
459.427	18052.66
459.644	18083.12
459.86	18105.81
460.077	18139.77
460.294	18179.26
460.51	18213.26
460.727	18250.21
460.943	18283.44
461.16	18314.53
461.376	18350.21
461.593	18393.95
461.809	18430.77
462.026	18475.32
462.242	18527.46
462.459	18564.86
462.675	18608.02
462.892	18654.26
463.108	18692.9
463.324	18735.42
463.541	18777.88
463.757	18823.26
463.974	18861.44
464.19	18906.39
464.406	18952.06
464.623	18997.37
464.839	19054.61
465.055	19102.5
465.271	19140.77
465.488	19182.53
465.704	19227.72
465.92	19281.61
466.136	19335.28
466.353	19386.77
466.569	19439.26
466.785	19493.59
467.001	19546.32
467.217	19596.59
467.433	19647.95
467.649	19706.5
467.865	19774.13
468.082	19834.75
468.298	19892.64
468.514	19952.35
468.73	20013.64
468.946	20071.93
469.162	20138.1
469.378	20198.08
469.594	20258.73
469.81	20322.06
470.026	20386.66
470.242	20458.37
470.457	20522.35
470.673	20591.35
470.889	20650.35
471.105	20718.97
471.321	20787.12
471.537	20850.82
471.753	20918.26
471.968	20986.75
472.184	21055.73
472.4	21132.53
472.616	21194.64
472.832	21279.52
473.047	21349.26
473.263	21425.97
473.479	21497.44
473.694	21571.39
473.91	21641.33
474.126	21715.81
474.341	21790.19
474.557	21872.7
474.773	21942.08
474.988	22015.9
475.204	22084.17
475.42	22160.64
475.635	22237.44
475.851	22305.62
476.066	22375.95
476.282	22442.95
476.497	22510.37
476.713	22575.97
476.928	22638.99
477.144	22708.95
477.359	22769.93
477.575	22836.35
477.79	22900.66
478.005	22965.21
478.221	23029.72
478.436	23085.81
478.651	23150.9
478.867	23211.28
479.082	23276.81
479.297	23331.04
479.513	23386.44
479.728	23441.52
479.943	23480.86
480.159	23518.61
480.374	23567.28
480.589	23625.9
480.804	23679.88
481.019	23729.35
481.235	23780.59
481.45	23830.53
481.665	23884.61
481.88	23930.64
482.095	23987.13
482.31	24043.84
482.525	24108.68
482.741	24157.42
482.956	24196.13
483.171	24250.39
483.386	24297.86
483.601	24342.62
483.816	24384.01
484.031	24434.9
484.246	24483.97
484.461	24531.7
484.676	24574.82
484.891	24618.9
485.105	24663.41
485.32	24710.22
485.535	24744.82
485.75	24789.57
485.965	24832.15
486.18	24869.19
486.395	24898.81
486.609	24940.42
486.824	24980.7
487.039	25021.15
487.254	25064.66
487.469	25101.79
487.683	25139.41
487.898	25184.41
488.113	25224.95
488.327	25270.75
488.542	25312.1
488.757	25353.32
488.972	25390.57
489.186	25422.22
489.401	25462.01
489.615	25486.46
489.83	25533.37
490.045	25577.37
490.259	25607.41
490.474	25642.9
490.688	25674.99
490.903	25704.5
491.117	25742.84
491.332	25780.7
491.546	25812.02
491.761	25840.08
491.975	25873.75
492.19	25900.3
492.404	25927.19
492.618	25959.92
492.833	25988.15
493.047	26020.5
493.262	26058.79
493.476	26081.42
493.69	26104.12
493.905	26137.3
494.119	26172.48
494.333	26204.32
494.547	26230.72
494.762	26251.04
494.976	26274.73
495.19	26302.06
495.404	26326.02
495.619	26345.82
495.833	26371.33
496.047	26392.17
496.261	26406.42
496.475	26421.28
496.689	26435.81
496.903	26443.22
497.117	26453.01
497.332	26466.55
497.546	26455.48
497.76	26441.99
497.974	26443.79
498.188	26431.62
498.402	26420.1
498.616	26410.04
498.83	26398.84
499.044	26380.21
499.258	26378.9
499.472	26372.9
499.685	26368.02
499.899	26387.84
500.113	26404.95
500.327	26408.48
500.541	26423.15
500.755	26435.75
500.969	26458.53
501.183	26471.1
501.396	26498.24
501.61	26510.55
501.824	26531.52
502.038	26545.73
502.251	26560.28
502.465	26582.1
502.679	26599.32
502.892	26620.86
503.106	26637.28
503.32	26656.72
503.533	26677.73
503.747	26701.99
503.961	26720.75
504.174	26750.28
504.388	26780.3
504.602	26808.48
504.815	26834.9
505.029	26882.57
505.242	26927.21
505.456	26978.92
505.669	27020.13
505.883	27078.42
506.096	27128.93
506.31	27186.81
506.523	27237.79
506.736	27293.72
506.95	27343.44
507.163	27401.35
507.377	27452.39
507.59	27511.62
507.803	27566.21
508.017	27628.64
508.23	27684.22
508.443	27750.02
508.657	27816.86
508.87	27881.99
509.083	27946.99
509.296	28028.66
509.51	28104.01
509.723	28177.06
509.936	28250.64
510.149	28339.08
510.363	28423.97
510.576	28511.61
510.789	28593.59
511.002	28690.21
511.215	28788.9
511.428	28889.04
511.641	28987.97
511.854	29089.17
512.067	29188.52
512.28	29297.68
512.493	29401.5
512.707	29505.59
512.92	29606.62
513.132	29717.73
513.345	29823.04
513.558	29929.04
513.771	30031.15
513.984	30135.55
514.197	30239.97
514.41	30358.52
514.623	30464.42
514.836	30575.15
515.049	30687.28
515.262	30798.79
515.474	30900.55
515.687	31007.33
515.9	31108.75
516.113	31214.22
516.325	31307.46
516.538	31404.06
516.751	31496.79
516.964	31583.82
517.176	31660.81
517.389	31742.88
517.602	31831.88
517.814	31915.97
518.027	31995.64
518.24	32072.75
518.452	32155.32
518.665	32235.61
518.877	32311.33
519.09	32379.1
519.303	32459.72
519.515	32529.35
519.728	32600.19
519.94	32666.86
520.153	32737.66
520.365	32805.3
520.578	32881.66
520.79	32951.37
521.002	33020.24
521.215	33086.46
521.427	33153.59
521.64	33199.68
521.852	33261.95
522.064	33315.41
522.277	33372.22
522.489	33421.08
522.701	33464.57
522.914	33508.26
523.126	33556.82
523.338	33594.24
523.551	33635.52
523.763	33676.26
523.975	33734.68
524.187	33782.08
524.399	33836.84
524.612	33882.37
524.824	33931.57
525.036	33988.22
525.248	34032.95
525.46	34072.52
525.672	34124.57
525.884	34169.84
526.096	34206.53
526.308	34240.61
526.521	34275.72
526.733	34309.06
526.945	34334.95
527.157	34363.3
527.369	34383.19
527.581	34410.88
527.793	34437.92
528.004	34468.35
528.216	34500.17
528.428	34538.72
528.64	34571.81
528.852	34600.5
529.064	34621.53
529.276	34653.21
529.488	34684.35
529.699	34718.53
529.911	34746.02
530.123	34777.81
530.335	34802.22
530.547	34833.93
530.758	34862.66
530.97	34891.84
531.182	34930.68
531.393	34971.33
531.605	35002.32
531.817	35036.93
532.029	35071.84
532.24	35102.33
532.452	35134.3
532.663	35155.33
532.875	35171.55
533.087	35188.04
533.298	35197.5
533.51	35218.32
533.721	35226.88
533.933	35245.33
534.144	35261.46
534.356	35281.52
534.567	35310.97
534.779	35324.99
534.99	35346.97
535.202	35373.72
535.413	35405.12
535.624	35435.82
535.836	35454.32
536.047	35485.55
536.259	35504.73
536.47	35523.1
536.681	35529.39
536.893	35528.1
537.104	35543.24
537.315	35568.42
537.526	35578.46
537.738	35583.53
537.949	35596.33
538.16	35606.68
538.371	35617.52
538.582	35635.86
538.794	35651.06
539.005	35668.84
539.216	35700.21
539.427	35723.15
539.638	35735.95
539.849	35753.9
540.06	35773.22
540.272	35794.26
540.483	35812.24
540.694	35831.77
540.905	35852.73
541.116	35870.08
541.327	35891.12
541.538	35903.42
541.749	35910.55
541.96	35919.48
542.17	35932.39
542.381	35939.3
542.592	35943.77
542.803	35957.5
543.014	35955.81
543.225	35945.33
543.436	35952.21
543.647	35956.19
543.857	35966.01
544.068	35978.57
544.279	35986.21
544.49	35996.22
544.701	36008.52
544.911	36016.73
545.122	36028.84
545.333	36046.44
545.543	36073.13
545.754	36082.73
545.965	36094.35
546.175	36110.64
546.386	36113.95
546.597	36134.24
546.807	36150.28
547.018	36169.73
547.229	36188.72
547.439	36186.57
547.65	36183.57
547.86	36185.81
548.071	36197.02
548.281	36189.04
548.492	36182.01
548.702	36194.22
548.913	36192.64
549.123	36185.33
549.333	36183.15
549.544	36186.04
549.754	36200.59
549.965	36223.04
550.175	36232.66
550.385	36241.15
550.596	36272.72
550.806	36289.79
551.016	36301.37
551.227	36315.13
551.437	36337.3
551.647	36350.37
551.857	36364.75
552.068	36382.08
552.278	36388.02
552.488	36400.02
552.698	36415.93
552.908	36426.81
553.119	36428.19
553.329	36431.1
553.539	36435.57
553.749	36436.68
553.959	36444.32
554.169	36440.86
554.379	36435.01
554.589	36437.04
554.799	36445.33
555.009	36441.01
555.219	36440.35
555.429	36446.92
555.639	36458.77
555.849	36459.9
556.059	36468.93
556.269	36468.06
556.479	36468.81
556.689	36479.41
556.899	36490.68
557.109	36500.12
557.319	36506.19
557.528	36499.99
557.738	36499.21
557.948	36482.73
558.158	36480.64
558.368	36469.42
558.577	36463.21
558.787	36459.99
558.997	36448.13
559.207	36424.97
559.416	36405.06
559.626	36393.61
559.836	36375.37
560.045	36371.26
560.255	36377.99
560.465	36380.28
560.674	36377.28
560.884	36373.46
561.093	36373.41
561.303	36368.35
561.512	36382.53
561.722	36382.79
561.932	36376.79
562.141	36386.01
562.351	36382.7
562.56	36378.57
562.769	36374.88
562.979	36371.22
563.188	36378.52
563.398	36378.95
563.607	36384.13
563.817	36369.53
564.026	36362.72
564.235	36370.55
564.445	36375.52
564.654	36377.32
564.863	36374.52
565.073	36361.35
565.282	36360.52
565.491	36346.53
565.7	36338.19
565.91	36327.04
566.119	36319.72
566.328	36319.32
566.537	36299.22
566.746	36275.33
566.956	36265.26
567.165	36253.97
567.374	36251.99
567.583	36241.46
567.792	36237.59
568.001	36231.37
568.21	36212.75
568.419	36200.64
568.628	36175.39
568.837	36154.52
569.046	36138.75
569.255	36114.46
569.464	36090.06
569.673	36064.86
569.882	36045.13
570.091	36008.86
570.3	35982.24
570.509	35968.1
570.718	35966.12
570.927	35953.12
571.135	35946.59
571.344	35947.42
571.553	35954.66
571.762	35961.08
571.971	35953.82
572.18	35947.12
572.388	35945.75
572.597	35933.62
572.806	35922.32
573.014	35896.12
573.223	35882.64
573.432	35864.08
573.641	35835.9
573.849	35796.32
574.058	35762.01
574.266	35747.92
574.475	35725.99
574.684	35707.64
574.892	35701.5
575.101	35688.73
575.309	35676.26
575.518	35675.97
575.726	35665.62
575.935	35665.59
576.143	35664.08
576.352	35656.06
576.56	35638.46
576.769	35625.68
576.977	35612.62
577.186	35581.57
577.394	35570.77
577.602	35548.37
577.811	35520.33
578.019	35502.46
578.228	35479.61
578.436	35453.9
578.644	35437.52
578.852	35416.13
579.061	35386.97
579.269	35365.77
579.477	35353.1
579.685	35326.68
579.894	35313.7
580.102	35302.06
580.31	35294.13
580.518	35280.86
580.726	35262.21
580.935	35239.61
581.143	35225.24
581.351	35213.01
581.559	35196.15
581.767	35172.28
581.975	35149.81
582.183	35127.28
582.391	35102.9
582.599	35081.35
582.807	35054.01
583.015	35035.44
583.223	35018.12
583.431	34999.72
583.639	34982.72
583.847	34958.46
584.055	34942.79
584.263	34922.79
584.471	34901.84
584.678	34879.04
584.886	34849.59
585.094	34826.17
585.302	34808.48
585.51	34788.26
585.718	34764.37
585.925	34752.53
586.133	34738.44
586.341	34724.41
586.549	34706.32
586.756	34694.57
586.964	34672.33
587.172	34658.37
587.379	34631.35
587.587	34605.41
587.795	34585.26
588.002	34566.5
588.21	34532.46
588.417	34502.15
588.625	34470.19
588.833	34447.66
589.04	34416.79
589.248	34390.79
589.455	34354.01
589.663	34340.62
589.87	34319.79
590.078	34291.72
590.285	34265.73
590.492	34244.55
590.7	34223.64
590.907	34197.82
591.115	34164.1
591.322	34143.61
591.529	34110.93
591.737	34095.21
591.944	34066.21
592.151	34042.28
592.359	34020.59
592.566	33993.17
592.773	33957.95
592.981	33929.59
593.188	33901.59
593.395	33879.88
593.602	33855.48
593.809	33845.06
594.017	33817.22
594.224	33798.02
594.431	33762.28
594.638	33731.39
594.845	33695.46
595.052	33681.32
595.259	33666.13
595.466	33642.97
595.673	33629.41
595.88	33604.86
596.088	33574.97
596.295	33548.64
596.502	33518.92
596.709	33507.32
596.915	33488.06
597.122	33476.41
597.329	33452.22
597.536	33426.28
597.743	33415.22
597.95	33385.77
598.157	33357.22
598.364	33320.75
598.571	33287.08
598.777	33242.97
598.984	33194.84
599.191	33140.37
599.398	33091.17
599.605	33041.93
599.811	32998.3
600.018	32941.92
600.225	32883.95
600.431	32830.97
600.638	32792.37
600.845	32761.13
601.052	32741.28
601.258	32713.32
601.465	32676.62
601.671	32620.22
601.878	32563.46
602.085	32477.08
602.291	32375.35
602.498	32264.5
602.704	32125.02
602.911	31974.84
603.117	31789.13
603.324	31583.7
603.53	31352.44
603.737	31128.35
603.943	30901.75
604.15	30648.68
604.356	30397.15
604.562	30148.15
604.769	29899.33
604.975	29642.5
605.181	29374.55
605.388	29105.77
605.594	28837.9
605.8	28578.88
606.007	28304.73
606.213	28028.1
606.419	27755.21
606.625	27481.26
606.832	27218.26
607.038	26939.3
607.244	26679.53
607.45	26408.97
607.656	26141.88
607.863	25866.82
608.069	25592.08
608.275	25317.06
608.481	25037.73
608.687	24752.41
608.893	24476.01
609.099	24187.57
609.305	23901.13
609.511	23604.92
609.717	23317.93
609.923	23030.81
610.129	22733.17
610.335	22432.66
610.541	22138.02
610.747	21835.21
610.953	21539.99
611.159	21229.52
611.365	20917.32
611.571	20600.48
611.776	20281.13
611.982	19954.06
612.188	19629.41
612.394	19304.59
612.6	18984.3
612.806	18647.84
613.011	18322.82
613.217	17993.72
613.423	17666.62
613.628	17344.44
613.834	17030.13
614.04	16718.41
614.246	16416.06
614.451	16110.62
614.657	15819.57
614.862	15529.46
615.068	15255.79
615.274	14979.92
615.479	14709.64
615.685	14447.48
615.89	14188.41
616.096	13927.1
616.301	13664.17
616.507	13403.52
616.712	13143.26
616.918	12882.88
617.123	12613.13
617.329	12338.22
617.534	12064.24
617.74	11783.97
617.945	11502.21
618.15	11200.92
618.356	10731.06
618.561	9873.95
618.766	8830.95
618.972	7756.68
619.177	6706.42
619.382	5687.77
619.588	4695.12
619.793	4102.05
619.998	3410.13
620.203	2577.96
620.408	1565.33
620.614	583.6
