Data from test1_MAYP1115451__73__10-15-02-271.txt Node

Date: Wed Jun 12 10:15:02 MDT 2024
User: Modes Lab
Spectrometer: MAYP111545
Trigger mode: 0
Integration Time (sec): 8.000000E-3
Scans to average: 5
Electric dark correction enabled: true
Nonlinearity correction enabled: false
Boxcar width: 5
XAxis mode: Wavelengths
Number of Pixels in Spectrum: 2068
>>>>>Begin Spectral Data<<<<<
165.214	163.9
165.449	163.74
165.683	173.07
165.918	182.43
166.152	188.93
166.387	194.24
166.621	125.68
166.856	164.98
167.09	183.48
167.325	206.93
167.559	224.38
167.794	238.8
168.028	246.51
168.263	248.17
168.497	247.29
168.732	247.69
168.966	248.13
169.2	249.71
169.435	250.69
169.669	252.33
169.903	253.98
170.138	254.49
170.372	255.22
170.606	256.48
170.841	257.42
171.075	260.35
171.309	262.49
171.544	264.46
171.778	266
172.012	267.91
172.246	269.04
172.48	271.64
172.715	274.66
172.949	276.44
173.183	278.53
173.417	279.82
173.651	281.48
173.885	282.09
174.119	282.64
174.354	284.51
174.588	284.35
174.822	285.38
175.056	284.29
175.29	282.86
175.524	282.98
175.758	282.98
175.992	283.8
176.226	283
176.46	283.26
176.694	284.75
176.928	285.58
177.162	286.97
177.396	287.86
177.63	289.2
177.864	291.35
178.097	292.2
178.331	292.51
178.565	292.84
178.799	293.82
179.033	294.57
179.267	294.53
179.5	294.88
179.734	296.02
179.968	296.77
180.202	297.51
180.436	297.09
180.669	298.57
180.903	300.02
181.137	301.91
181.371	302.35
181.604	303.4
181.838	305.11
182.072	306.11
182.305	306.73
182.539	307.84
182.772	309.53
183.006	311.28
183.24	312.18
183.473	316.33
183.707	317.57
183.94	318.69
184.174	319.84
184.408	321.33
184.641	321.73
184.875	323.11
185.108	323.95
185.342	325.86
185.575	327.04
185.808	328.26
186.042	327.02
186.275	327.31
186.509	328.55
186.742	331
186.976	331.71
187.209	333.8
187.442	334.68
187.676	336.42
187.909	336.18
188.142	337.37
188.376	339.77
188.609	340.2
188.842	341.91
189.076	344.33
189.309	345.71
189.542	347.44
189.775	349.49
190.009	350.35
190.242	351.82
190.475	354.82
190.708	356.95
190.941	358.18
191.174	360.37
191.408	361.89
191.641	362.26
191.874	363.58
192.107	365
192.34	366.69
192.573	369.77
192.806	370.44
193.039	371
193.272	373.2
193.505	374.29
193.738	376.78
193.971	379.26
194.204	382.29
194.437	383.73
194.67	385.58
194.903	386.28
195.136	388.2
195.369	391.53
195.602	393.88
195.835	395.55
196.068	398.17
196.301	399.84
196.533	401.06
196.766	403.2
196.999	405.4
197.232	407.28
197.465	409.28
197.698	411.89
197.93	413.71
198.163	415.91
198.396	417.75
198.629	419.26
198.861	420.04
199.094	422.77
199.327	424.29
199.559	426.75
199.792	428.93
200.025	431.33
200.257	431.98
200.49	434.49
200.723	435.73
200.955	437.78
201.188	439.6
201.42	442.93
201.653	445.06
201.886	446.42
202.118	448.46
202.351	450.6
202.583	452.97
202.816	456.37
203.048	458.75
203.281	462.04
203.513	463.86
203.745	468.29
203.978	469.77
204.21	471.24
204.443	474.77
204.675	475.13
204.907	477.84
205.14	480.33
205.372	481.64
205.605	482.77
205.837	485.6
206.069	488.68
206.302	488.28
206.534	491.73
206.766	494.06
206.998	496.2
207.231	500.62
207.463	502.71
207.695	505.33
207.927	507.22
208.159	509.8
208.392	510.64
208.624	512.26
208.856	516.13
209.088	518
209.32	520.75
209.552	522.53
209.784	524.57
210.017	526.53
210.249	528.35
210.481	531.64
210.713	533.6
210.945	536.88
211.177	540.28
211.409	541.15
211.641	543.8
211.873	545.64
212.105	548
212.337	548.4
212.569	550.71
212.801	553.4
213.033	554.97
213.264	557.53
213.496	559.2
213.728	559.97
213.96	564.35
214.192	564.93
214.424	566.18
214.656	566.86
214.887	570.89
215.119	574.49
215.351	575.2
215.583	576.89
215.815	579.89
216.046	581.91
216.278	582.78
216.51	582.91
216.741	584.44
216.973	586.42
217.205	589.49
217.436	590.04
217.668	590.62
217.9	592.64
218.131	594.29
218.363	593.18
218.595	593.91
218.826	596.49
219.058	598.8
219.289	600.57
219.521	601.26
219.752	601.77
219.984	602.89
220.215	603.08
220.447	603.73
220.678	603.77
220.91	606.15
221.141	607.38
221.373	608.68
221.604	609.86
221.836	610.88
222.067	613.8
222.298	616.13
222.53	617.24
222.761	618.89
222.993	620.57
223.224	623.29
223.455	624.29
223.686	624.58
223.918	625.95
224.149	625.91
224.38	626.66
224.612	626.22
224.843	626.29
225.074	627.57
225.305	628.57
225.536	628.46
225.768	629.44
225.999	629.8
226.23	631.17
226.461	630.09
226.692	630.06
226.923	630.71
227.155	633.51
227.386	633.48
227.617	633.89
227.848	633.71
228.079	634.68
228.31	633.58
228.541	633.22
228.772	634.04
229.003	634.18
229.234	634.06
229.465	633.62
229.696	630.95
229.927	630.73
230.158	630.48
230.389	629.28
230.62	630.49
230.85	631.66
231.081	633.57
231.312	633.68
231.543	633.69
231.774	634.58
232.005	635.15
232.236	636.08
232.466	638.26
232.697	638.71
232.928	639.31
233.159	637.66
233.389	637.73
233.62	637.17
233.851	636.93
234.082	636.37
234.312	637.02
234.543	636.93
234.774	636.95
235.004	634.53
235.235	633.51
235.466	632.64
235.696	633.31
235.927	632.48
236.157	631.38
236.388	631.06
236.618	632
236.849	629.49
237.08	629.53
237.31	628.31
237.541	629.4
237.771	629.71
238.002	630.08
238.232	629.82
238.463	630.53
238.693	631.09
238.923	630.33
239.154	629.95
239.384	630.66
239.615	629.33
239.845	628.58
240.075	627.8
240.306	626.66
240.536	626.24
240.766	625.8
240.997	624.82
241.227	624.97
241.457	623.77
241.687	623.28
241.918	623.46
242.148	624.18
242.378	625.51
242.608	624.93
242.839	625.8
243.069	625.86
243.299	624.57
243.529	625.22
243.759	624.93
243.989	625.17
244.22	625.8
244.45	625.51
244.68	625.78
244.91	625.51
245.14	625.24
245.37	625.22
245.6	625.17
245.83	624.68
246.06	622.17
246.29	621.84
246.52	622.24
246.75	620.15
246.98	619.93
247.21	618.44
247.44	617.08
247.67	616.58
247.9	614.53
248.13	613.57
248.359	612.53
248.589	612.71
248.819	611.09
249.049	610.18
249.279	609.42
249.509	607.22
249.738	608.06
249.968	607.46
250.198	605.68
250.428	605.89
250.657	605.44
250.887	606.09
251.117	605.8
251.347	604.66
251.576	604.75
251.806	604.64
252.036	605.64
252.265	604.17
252.495	603.68
252.725	604.57
252.954	602.55
253.184	601.55
253.413	601.15
253.643	600.04
253.873	599.93
254.102	599.2
254.332	600.31
254.561	599.66
254.791	598.68
255.02	598.66
255.25	597.91
255.479	597.58
255.708	598.78
255.938	597.69
256.167	597.75
256.397	596.75
256.626	595.71
256.856	593.2
257.085	591.88
257.314	591.24
257.544	590.26
257.773	589.73
258.002	590.2
258.232	587.73
258.461	588.6
258.69	587.48
258.919	586.31
259.149	584.86
259.378	584.4
259.607	583.82
259.836	583.58
260.065	583.57
260.295	583.29
260.524	582.53
260.753	582.49
260.982	580.66
261.211	579.93
261.44	580.29
261.669	580.2
261.899	580.2
262.128	579.42
262.357	577.75
262.586	576.04
262.815	574.33
263.044	573.89
263.273	576.35
263.502	575.82
263.731	575.71
263.96	574.73
264.189	573.68
264.418	572.58
264.646	571.48
264.875	570.49
265.104	569.77
265.333	568.97
265.562	567.78
265.791	563.2
266.02	562.6
266.249	561.02
266.477	559.69
266.706	558.62
266.935	557.66
267.164	556.88
267.393	557.53
267.621	556.97
267.85	555.71
268.079	554.29
268.307	553.78
268.536	550.77
268.765	550.06
268.993	550.62
269.222	549.86
269.451	549.53
269.679	549.53
269.908	548.75
270.137	548.97
270.365	549.78
270.594	549.35
270.822	549.64
271.051	551.42
271.279	552.17
271.508	551.58
271.736	552.69
271.965	552.51
272.193	552.8
272.422	553.53
272.65	553.28
272.879	552.35
273.107	552.46
273.336	551.8
273.564	549.97
273.792	548.33
274.021	546.8
274.249	544.95
274.477	544.09
274.706	543.28
274.934	539.4
275.162	537.33
275.391	537.11
275.619	536.88
275.847	535.53
276.075	535.18
276.304	534.15
276.532	534.57
276.76	533.73
276.988	533.8
277.216	532.24
277.445	532.51
277.673	533
277.901	531.26
278.129	530
278.357	531.02
278.585	530.88
278.813	530.62
279.041	527.89
279.269	527
279.497	525.04
279.725	524.8
279.954	525.98
280.182	524.2
280.41	524.2
280.637	524.55
280.865	523.26
281.093	523.28
281.321	522.73
281.549	523.55
281.777	524.06
282.005	523.66
282.233	522.95
282.461	521.66
282.689	521.78
282.916	521.15
283.144	519.78
283.372	519.86
283.6	517.73
283.828	516.98
284.055	516.58
284.283	516.55
284.511	516.4
284.739	516.42
284.966	515.64
285.194	514.29
285.422	513.55
285.649	513.62
285.877	510.91
286.105	511.66
286.332	512.02
286.56	511.49
286.788	510.97
287.015	510.04
287.243	508.93
287.47	508.75
287.698	508.6
287.925	508.86
288.153	507.46
288.381	508.31
288.608	507.28
288.836	506.48
289.063	505.29
289.29	504.22
289.518	504.38
289.745	504.22
289.973	503.04
290.2	504.62
290.428	503.06
290.655	503.73
290.882	504.15
291.11	503.66
291.337	502.64
291.564	502.53
291.792	501.22
292.019	500.82
292.246	499.71
292.473	498.78
292.701	496.77
292.928	496.84
293.155	495.62
293.382	493.6
293.61	493.37
293.837	492.73
294.064	491.8
294.291	490.48
294.518	489.91
294.745	489.46
294.972	489.8
295.2	488.89
295.427	487.95
295.654	487.17
295.881	485.82
296.108	484.8
296.335	483.98
296.562	482.88
296.789	482.91
297.016	481.82
297.243	479.97
297.47	478.88
297.697	477.62
297.924	477.93
298.151	476.89
298.378	477.62
298.604	477.49
298.831	476.42
299.058	476.82
299.285	476.97
299.512	476.49
299.739	477.57
299.966	477.46
300.192	477.86
300.419	476.71
300.646	475.89
300.873	475.73
301.099	475.18
301.326	475.62
301.553	475.28
301.78	475.42
302.006	474.97
302.233	474.48
302.46	473.29
302.686	472.77
302.913	472.46
303.14	473.04
303.366	471.44
303.593	470.86
303.819	471.09
304.046	470.24
304.272	468.64
304.499	468.84
304.725	469.11
304.952	469.09
305.179	468.37
305.405	468.93
305.631	468.73
305.858	468.88
306.084	468.46
306.311	467.6
306.537	468
306.764	468.17
306.99	468.08
307.216	466.98
307.443	467.97
307.669	467.84
307.895	466.04
308.122	465.88
308.348	466.15
308.574	465.33
308.801	465.35
309.027	465.6
309.253	465.64
309.479	465.69
309.706	465.51
309.932	464.46
310.158	465.08
310.384	466.17
310.61	465.69
310.837	465.31
311.063	465.97
311.289	465.31
311.515	464.29
311.741	464.35
311.967	463.77
312.193	464.66
312.419	464.31
312.645	463.38
312.871	462.57
313.097	463.33
313.323	463.38
313.549	463.97
313.775	463.68
314.001	464.09
314.227	463.06
314.453	463.35
314.679	462.51
314.905	463.28
315.131	462.91
315.357	464.35
315.583	463.04
315.809	463.77
316.034	463.4
316.26	464.53
316.486	465.46
316.712	466.78
316.938	466.62
317.163	467.29
317.389	468.38
317.615	469.26
317.841	468.8
318.066	470.73
318.292	469.93
318.518	470.55
318.743	470.73
318.969	470.77
319.195	471.33
319.42	471.88
319.646	472.55
319.872	471.73
320.097	472.71
320.323	473.6
320.548	475.06
320.774	476.4
320.999	477.66
321.225	479.64
321.45	481.06
321.676	482.58
321.901	484.17
322.127	484.4
322.352	487.02
322.578	488.91
322.803	490.26
323.029	490.6
323.254	493.31
323.479	494.37
323.705	494.04
323.93	495.53
324.155	496.57
324.381	498.02
324.606	500.17
324.831	502.33
325.057	504.29
325.282	506.42
325.507	507.82
325.732	509.77
325.958	512.66
326.183	515.48
326.408	518.24
326.633	521.49
326.858	525
327.084	528.98
327.309	531.18
327.534	533.95
327.759	535.64
327.984	539.8
328.209	542.33
328.434	545.49
328.659	549.22
328.884	552.93
329.109	555.53
329.334	558.26
329.559	560.48
329.784	563.04
330.009	566.4
330.234	571.13
330.459	574.51
330.684	577.69
330.909	580.29
331.134	584.46
331.359	586.4
331.584	591.17
331.809	595
332.034	598.71
332.259	603.26
332.483	607.4
332.708	610.42
332.933	614.66
333.158	618.35
333.383	624.09
333.607	628.09
333.832	633.55
334.057	638.86
334.282	643.18
334.506	650
334.731	655.09
334.956	660.53
335.18	666.2
335.405	671.31
335.63	677.71
335.854	682.53
336.079	689.49
336.303	695.77
336.528	701.06
336.753	707.77
336.977	714.04
337.202	721.02
337.426	727.95
337.651	735.91
337.875	743.71
338.1	750.4
338.324	758.31
338.549	763.93
338.773	771.31
338.997	777.06
339.222	785.4
339.446	791.28
339.671	799.15
339.895	806.46
340.119	811.82
340.344	818.11
340.568	825.64
340.792	832.64
341.017	840.37
341.241	847.91
341.465	858.15
341.689	864.68
341.914	872.98
342.138	880.78
342.362	889.82
342.586	899.22
342.811	907.58
343.035	918.49
343.259	926.28
343.483	935.71
343.707	942.82
343.931	950.6
344.155	959.55
344.38	970.09
344.604	978.44
344.828	987.58
345.052	997.86
345.276	1007.11
345.5	1015.22
345.724	1024.88
345.948	1036.37
346.172	1047.44
346.396	1058.11
346.62	1069.46
346.844	1079.28
347.068	1091.17
347.292	1100.46
347.515	1108.95
347.739	1122.26
347.963	1131.58
348.187	1143.11
348.411	1151.73
348.635	1163.37
348.859	1173.49
349.082	1183.04
349.306	1192.44
349.53	1202.51
349.754	1213.68
349.977	1226.08
350.201	1233.98
350.425	1245.55
350.649	1257.06
350.872	1268.22
351.096	1278.64
351.32	1290.66
351.543	1302.44
351.767	1315.2
351.99	1326.29
352.214	1337.06
352.438	1347.44
352.661	1359.02
352.885	1370.66
353.108	1382.51
353.332	1394.37
353.555	1406.88
353.779	1419.06
354.002	1430.44
354.226	1440.15
354.449	1451.4
354.673	1462.11
354.896	1476.69
355.12	1488.24
355.343	1502.06
355.566	1515.49
355.79	1529.24
356.013	1541.84
356.237	1550.89
356.46	1561.86
356.683	1575.68
356.907	1588.53
357.13	1602.44
357.353	1614.29
357.576	1627.35
357.8	1639.35
358.023	1650.84
358.246	1662.48
358.469	1674.15
358.693	1689.24
358.916	1702.08
359.139	1715.04
359.362	1727.11
359.585	1739.53
359.808	1752.8
360.031	1767.11
360.255	1779
360.478	1791.91
360.701	1804.31
360.924	1820
361.147	1834.53
361.37	1848.8
361.593	1863.42
361.816	1877.62
362.039	1892.44
362.262	1904.26
362.485	1916.62
362.708	1931.26
362.931	1943.89
363.154	1956.66
363.377	1969.57
363.599	1982.71
363.822	1999.64
364.045	2012.28
364.268	2024.64
364.491	2036.89
364.714	2051.38
364.936	2068.33
365.159	2081.26
365.382	2097.09
365.605	2113.58
365.828	2128.2
366.05	2142.66
366.273	2155.8
366.496	2174
366.718	2192.11
366.941	2209.24
367.164	2225.51
367.386	2240.35
367.609	2258.91
367.832	2274.11
368.054	2289.69
368.277	2305.26
368.5	2322.58
368.722	2337.68
368.945	2352.73
369.167	2370.35
369.39	2387.75
369.612	2405.37
369.835	2421.8
370.057	2436.57
370.28	2455.09
370.502	2471.42
370.725	2490.66
370.947	2504.62
371.169	2526
371.392	2541.73
371.614	2556.98
371.837	2572.53
372.059	2589.46
372.281	2606.11
372.504	2624.22
372.726	2640.8
372.948	2660.2
373.171	2673.73
373.393	2694.64
373.615	2711.46
373.837	2727.06
374.06	2746.17
374.282	2764.88
374.504	2781.51
374.726	2801.22
374.948	2820.02
375.17	2838.28
375.393	2855.82
375.615	2876.4
375.837	2895.13
376.059	2912.13
376.281	2932.75
376.503	2953.73
376.725	2977.22
376.947	2998.4
377.169	3019.88
377.391	3040.11
377.613	3060.68
377.835	3081.24
378.057	3104.62
378.279	3124.49
378.501	3145.04
378.723	3166.8
378.945	3185.77
379.167	3205.29
379.389	3229.93
379.611	3250.57
379.833	3274.53
380.054	3299.26
380.276	3323.78
380.498	3344.13
380.72	3369.58
380.942	3396.78
381.163	3423.6
381.385	3448.78
381.607	3471.69
381.829	3494.98
382.05	3519.37
382.272	3544.22
382.494	3568.64
382.716	3593.69
382.937	3618.6
383.159	3642.91
383.381	3668.66
383.602	3692
383.824	3719.08
384.045	3747.64
384.267	3773.95
384.488	3801.33
384.71	3828.62
384.932	3856.24
385.153	3884.97
385.375	3914.97
385.596	3943.69
385.818	3968.06
386.039	3994.66
386.261	4022.66
386.482	4051.02
386.703	4078
386.925	4105.17
387.146	4131.98
387.368	4160.17
387.589	4186.82
387.81	4218.06
388.032	4247.29
388.253	4280
388.474	4313.88
388.696	4342.93
388.917	4370.06
389.138	4401.95
389.359	4433.28
389.581	4464.84
389.802	4496.95
390.023	4528.13
390.244	4553.8
390.465	4582
390.687	4611.44
390.908	4641.2
391.129	4672.42
391.35	4705.09
391.571	4734.97
391.792	4765.17
392.013	4791.48
392.234	4820
392.455	4851.06
392.677	4885.11
392.898	4921.48
393.119	4954.55
393.34	4988.09
393.561	5020.31
393.782	5052.15
394.003	5083.71
394.223	5118.6
394.444	5156.44
394.665	5189.75
394.886	5223.49
395.107	5258.42
395.328	5288.15
395.549	5320.62
395.77	5351.66
395.99	5386.17
396.211	5424.53
396.432	5463.71
396.653	5496.17
396.874	5532.09
397.094	5566.57
397.315	5599.55
397.536	5631.88
397.757	5666.29
397.977	5699.58
398.198	5737.44
398.419	5775.57
398.639	5808.55
398.86	5837.51
399.081	5876.42
399.301	5908.31
399.522	5943.58
399.742	5978.84
399.963	6013.17
400.184	6050.29
400.404	6086.55
400.625	6122.77
400.845	6153.46
401.066	6184.84
401.286	6222.29
401.507	6255.73
401.727	6289.08
401.948	6326.58
402.168	6363.46
402.388	6397.57
402.609	6432.86
402.829	6467.57
403.05	6497.37
403.27	6533.46
403.49	6570.09
403.711	6604.09
403.931	6639.04
404.151	6673.33
404.372	6709.29
404.592	6745.46
404.812	6782.91
405.032	6818.88
405.253	6850.68
405.473	6887.75
405.693	6925.24
405.913	6960.38
406.133	6998.64
406.353	7037.4
406.574	7077.55
406.794	7111.18
407.014	7146.89
407.234	7182
407.454	7215.82
407.674	7255.95
407.894	7291.88
408.114	7328.44
408.334	7368.64
408.554	7408.8
408.774	7442.75
408.994	7478.04
409.214	7512.48
409.434	7549.8
409.654	7589.78
409.874	7624.93
410.094	7663.4
410.314	7702.64
410.534	7739.46
410.754	7773.66
410.974	7809.15
411.193	7849.18
411.413	7892.53
411.633	7934.24
411.853	7975.51
412.073	8010.82
412.292	8054.17
412.512	8091.75
412.732	8132.29
412.952	8175.13
413.171	8218.44
413.391	8257.78
413.611	8298.28
413.831	8336.44
414.05	8382.88
414.27	8424.44
414.489	8468.17
414.709	8513.77
414.929	8558.02
415.148	8599.58
415.368	8638.48
415.587	8681.77
415.807	8721.82
416.026	8762.53
416.246	8806.8
416.465	8842.64
416.685	8882.51
416.904	8929.04
417.124	8967.11
417.343	9009.88
417.563	9053.6
417.782	9096.22
418.002	9141.95
418.221	9185.64
418.44	9231.89
418.66	9270.35
418.879	9320.53
419.098	9365
419.318	9408.29
419.537	9457.62
419.756	9506.66
419.976	9553.69
420.195	9598.11
420.414	9640.62
420.633	9688.22
420.853	9730.02
421.072	9775.2
421.291	9814.2
421.51	9860.8
421.729	9903.04
421.948	9943.89
422.168	9986.02
422.387	10028.82
422.606	10073.73
422.825	10114.33
423.044	10157.95
423.263	10204.15
423.482	10252.91
423.701	10296.62
423.92	10335.58
424.139	10381.69
424.358	10419.86
424.577	10462.46
424.796	10505.53
425.015	10551.11
425.234	10603
425.453	10646.58
425.672	10692.86
425.891	10733.62
426.11	10784.33
426.328	10835.62
426.547	10879.08
426.766	10928.53
426.985	10973.33
427.204	11020.33
427.422	11059.69
427.641	11096.38
427.86	11148.17
428.079	11191.38
428.297	11243.69
428.516	11290.62
428.735	11339.13
428.954	11388.69
429.172	11440.73
429.391	11492.78
429.61	11541.06
429.828	11594.48
430.047	11649.91
430.265	11692.44
430.484	11740.88
430.703	11788.42
430.921	11830.95
431.14	11874.78
431.358	11920.66
431.577	11968.55
431.795	12012.51
432.014	12059.37
432.232	12111.91
432.451	12159.48
432.669	12205.04
432.887	12248.68
433.106	12297.31
433.324	12348.58
433.543	12397.58
433.761	12452.8
433.979	12502.42
434.198	12555.15
434.416	12599.86
434.634	12643.08
434.853	12689.4
435.071	12744.04
435.289	12792.95
435.507	12835.04
435.726	12880.2
435.944	12923.84
436.162	12966.86
436.38	13005.08
436.598	13044.44
436.817	13093.11
437.035	13141.15
437.253	13182.6
437.471	13229.86
437.689	13280.4
437.907	13332.22
438.125	13377.91
438.343	13424.29
438.561	13472.26
438.78	13524.31
438.998	13571.82
439.216	13623.66
439.434	13669.17
439.652	13722.75
439.869	13771.42
440.087	13818.08
440.305	13866.13
440.523	13911.49
440.741	13963.02
440.959	14011.09
441.177	14062.57
441.395	14116.88
441.613	14168.77
441.831	14215.2
442.048	14256.88
442.266	14298.97
442.484	14352.37
442.702	14398
442.919	14457.51
443.137	14504.02
443.355	14550.91
443.573	14600.38
443.79	14644.68
444.008	14684.91
444.226	14736.57
444.443	14782.77
444.661	14833
444.879	14873.06
445.096	14921.38
445.314	14964.55
445.532	15014.35
445.749	15061.28
445.967	15110.31
446.184	15162.48
446.402	15214.2
446.619	15265.29
446.837	15327.42
447.054	15378.73
447.272	15431.11
447.489	15477.18
447.707	15520.4
447.924	15569.09
448.141	15619.77
448.359	15664.31
448.576	15712.97
448.794	15762.44
449.011	15807.8
449.228	15850.31
449.446	15890.35
449.663	15938.26
449.88	15989.37
450.098	16044.98
450.315	16095.68
450.532	16142.37
450.749	16193.22
450.967	16237.31
451.184	16282.09
451.401	16332.62
451.618	16382.57
451.835	16435.48
452.052	16488.22
452.27	16538.29
452.487	16585.82
452.704	16633.55
452.921	16681.77
453.138	16724.44
453.355	16773.97
453.572	16824.95
453.789	16870.48
454.006	16915.73
454.223	16967.08
454.44	17011.38
454.657	17060.24
454.874	17105.24
455.091	17151.53
455.308	17206.71
455.525	17254.46
455.742	17301.93
455.959	17351.58
456.176	17397.88
456.393	17446.64
456.609	17486.06
456.826	17533.2
457.043	17582.88
457.26	17630.68
457.477	17675.62
457.693	17713.42
457.91	17764.77
458.127	17807.71
458.344	17840.73
458.56	17881.66
458.777	17915.31
458.994	17961.13
459.21	17998.26
459.427	18028.77
459.644	18067.66
459.86	18107.8
460.077	18139.58
460.294	18171.73
460.51	18207.26
460.727	18253.4
460.943	18294.93
461.16	18341.29
461.376	18376.17
461.593	18418.82
461.809	18454.88
462.026	18483.18
462.242	18521.17
462.459	18565.89
462.675	18600.24
462.892	18646.6
463.108	18680.57
463.324	18720.93
463.541	18763.58
463.757	18807.22
463.974	18851.51
464.19	18901.77
464.406	18953.08
464.623	18997.33
464.839	19036.86
465.055	19090.26
465.271	19134.33
465.488	19179.71
465.704	19223.69
465.92	19272.09
466.136	19321.64
466.353	19368.29
466.569	19421.35
466.785	19472.22
467.001	19530.53
467.217	19586.93
467.433	19649.22
467.649	19711
467.865	19771.93
468.082	19841.35
468.298	19895.29
468.514	19957.28
468.73	20018.91
468.946	20076.55
469.162	20148.97
469.378	20206.75
469.594	20274.38
469.81	20320.35
470.026	20379.57
470.242	20445.29
470.457	20508.28
470.673	20577.51
470.889	20646.55
471.105	20717.49
471.321	20788.68
471.537	20850.78
471.753	20920.02
471.968	20989.24
472.184	21079.82
472.4	21152.58
472.616	21227.69
472.832	21304.98
473.047	21379.97
473.263	21449.58
473.479	21512.02
473.694	21579.17
473.91	21654.24
474.126	21726.55
474.341	21800.8
474.557	21867.73
474.773	21934.69
474.988	21997.78
475.204	22064.04
475.42	22138.29
475.635	22209.15
475.851	22292.66
476.066	22363.86
476.282	22425.77
476.497	22494.24
476.713	22559.48
476.928	22624.8
477.144	22695.4
477.359	22769.48
477.575	22828.31
477.79	22889.2
478.005	22955.26
478.221	23010.91
478.436	23077.91
478.651	23147.08
478.867	23208.75
479.082	23270.55
479.297	23326.28
479.513	23381.62
479.728	23436.35
479.943	23491.62
480.159	23539.4
480.374	23590
480.589	23649.46
480.804	23703.46
481.019	23753.98
481.235	23798.33
481.45	23849.89
481.665	23903.71
481.88	23962.11
482.095	24020.11
482.31	24078.68
482.525	24135.48
482.741	24190.35
482.956	24233.2
483.171	24276.89
483.386	24320.97
483.601	24379.49
483.816	24425.04
484.031	24464.44
484.246	24496.69
484.461	24538.55
484.676	24573.77
484.891	24618.49
485.105	24658.64
485.32	24703.24
485.535	24740.55
485.75	24789.71
485.965	24826.2
486.18	24866.08
486.395	24912.71
486.609	24966.49
486.824	25002.55
487.039	25050.48
487.254	25085.08
487.469	25128.35
487.683	25167.57
487.898	25213.84
488.113	25252.84
488.327	25295.08
488.542	25336.15
488.757	25371.18
488.972	25412.97
489.186	25450.06
489.401	25487.78
489.615	25523.62
489.83	25552.31
490.045	25589.77
490.259	25620.28
490.474	25651.35
490.688	25685.84
490.903	25717.24
491.117	25745.06
491.332	25762.28
491.546	25798.38
491.761	25825.42
491.975	25857.17
492.19	25893.86
492.404	25916.71
492.618	25953.89
492.833	25979.2
493.047	26010.37
493.262	26040.18
493.476	26078.91
493.69	26115.06
493.905	26135.75
494.119	26164.86
494.333	26189.84
494.547	26213
494.762	26251.58
494.976	26277.51
495.19	26311.42
495.404	26332.37
495.619	26361.46
495.833	26389.93
496.047	26404.28
496.261	26426.77
496.475	26437.78
496.689	26454.2
496.903	26458.91
497.117	26450.78
497.332	26449.88
497.546	26446.06
497.76	26441.98
497.974	26428.22
498.188	26407.71
498.402	26396.53
498.616	26387.55
498.83	26375.91
499.044	26367.04
499.258	26369.11
499.472	26371.37
499.685	26371
499.899	26376.64
500.113	26389.42
500.327	26395.08
500.541	26415.02
500.755	26436.42
500.969	26453.69
501.183	26475.15
501.396	26493.73
501.61	26515.71
501.824	26544.11
502.038	26563.55
502.251	26586.88
502.465	26596.06
502.679	26625.37
502.892	26637.57
503.106	26653.55
503.32	26674.37
503.533	26699.02
503.747	26726.77
503.961	26745.91
504.174	26769.86
504.388	26794.86
504.602	26821.98
504.815	26861.78
505.029	26898.8
505.242	26947.37
505.456	27000.48
505.669	27046.4
505.883	27100.08
506.096	27143.4
506.31	27198.49
506.523	27249.86
506.736	27317.15
506.95	27364.58
507.163	27421.77
507.377	27473.6
507.59	27523.66
507.803	27573.93
508.017	27629.86
508.23	27693.15
508.443	27762.22
508.657	27825.77
508.87	27888.73
509.083	27956.04
509.296	28034.95
509.51	28111.13
509.723	28191.33
509.936	28279.51
510.149	28365.66
510.363	28459.04
510.576	28531.55
510.789	28619.89
511.002	28711.28
511.215	28813
511.428	28909.48
511.641	29014.97
511.854	29116.77
512.067	29213.2
512.28	29310.6
512.493	29413.58
512.707	29508.53
512.92	29619.89
513.132	29722.98
513.345	29836.02
513.558	29938.29
513.771	30035.33
513.984	30127.57
514.197	30241.04
514.41	30354.06
514.623	30474.33
514.836	30581.29
515.049	30690.91
515.262	30802.62
515.474	30917.11
515.687	31012.57
515.9	31115.97
516.113	31214.62
516.325	31315.75
516.538	31396.78
516.751	31487.95
516.964	31565.55
517.176	31661.42
517.389	31748.2
517.602	31825.66
517.814	31910.24
518.027	31995.93
518.24	32067.22
518.452	32154.53
518.665	32233.93
518.877	32319.04
519.09	32398.18
519.303	32477.66
519.515	32544.86
519.728	32620.4
519.94	32691.57
520.153	32756.13
520.365	32821.82
520.578	32896.18
520.79	32959.97
521.002	33027.68
521.215	33083.51
521.427	33139.62
521.64	33194.17
521.852	33242.37
522.064	33288.38
522.277	33348.28
522.489	33394.82
522.701	33444.64
522.914	33497.89
523.126	33544.49
523.338	33584.95
523.551	33633.24
523.763	33695.49
523.975	33734.53
524.187	33791.29
524.399	33852.89
524.612	33898.62
524.824	33946.51
525.036	33993.46
525.248	34038.78
525.46	34080.8
525.672	34139.77
525.884	34177.89
526.096	34207.33
526.308	34249.26
526.521	34286.97
526.733	34310.13
526.945	34334.62
527.157	34366.77
527.369	34394.62
527.581	34425.09
527.793	34458.84
528.004	34476.89
528.216	34516.38
528.428	34539.97
528.64	34576.93
528.852	34605.2
529.064	34640.91
529.276	34678.57
529.488	34704.42
529.699	34731.78
529.911	34761.49
530.123	34786.73
530.335	34815.86
530.547	34844.11
530.758	34875.09
530.97	34907.88
531.182	34931.71
531.393	34965.98
531.605	35003.68
531.817	35037.78
532.029	35070.18
532.24	35097.02
532.452	35124.02
532.663	35146.69
532.875	35165.68
533.087	35190.58
533.298	35203.2
533.51	35238.55
533.721	35244.8
533.933	35258.06
534.144	35282.91
534.356	35304.77
534.567	35317.98
534.779	35338.29
534.99	35367.93
535.202	35393.46
535.413	35421.77
535.624	35447.38
535.836	35464.04
536.047	35499.13
536.259	35510.42
536.47	35526.42
536.681	35536.88
536.893	35554.04
537.104	35571.48
537.315	35584.57
537.526	35593.53
537.738	35598.46
537.949	35613.26
538.16	35618.91
538.371	35630
538.582	35652.29
538.794	35667.29
539.005	35692.02
539.216	35714.75
539.427	35736.49
539.638	35749.71
539.849	35775.02
540.06	35802.4
540.272	35822.37
540.483	35845.58
540.694	35866.73
540.905	35882.77
541.116	35893.26
541.327	35909.93
541.538	35914.8
541.749	35933.13
541.96	35947.17
542.17	35957.18
542.381	35955.49
542.592	35965.28
542.803	35964.28
543.014	35962.68
543.225	35958.93
543.436	35966.38
543.647	35973.53
543.857	35983.53
544.068	35982.22
544.279	35990.42
544.49	35998.04
544.701	36019.95
544.911	36025.82
545.122	36047.77
545.333	36059.97
545.543	36080.6
545.754	36096.53
545.965	36103.93
546.175	36121.15
546.386	36139.06
546.597	36149.88
546.807	36159.2
547.018	36158.49
547.229	36168.91
547.439	36175.2
547.65	36187.26
547.86	36193.91
548.071	36202.88
548.281	36209.58
548.492	36216.18
548.702	36222.06
548.913	36230.89
549.123	36241.2
549.333	36257.09
549.544	36261.62
549.754	36263.4
549.965	36271.33
550.175	36289.88
550.385	36305.53
550.596	36317.53
550.806	36331.88
551.016	36336.33
551.227	36344.58
551.437	36349.51
551.647	36358.93
551.857	36381.18
552.068	36402.98
552.278	36412.28
552.488	36408.18
552.698	36405.06
552.908	36416
553.119	36421.09
553.329	36429.62
553.539	36437.13
553.749	36444.15
553.959	36442.53
554.169	36432.68
554.379	36430.29
554.589	36436.15
554.799	36443.95
555.009	36451.97
555.219	36451.09
555.429	36452
555.639	36460.4
555.849	36458.8
556.059	36457.98
556.269	36466.44
556.479	36470.95
556.689	36473.71
556.899	36471.37
557.109	36473.57
557.319	36467.28
557.528	36467.08
557.738	36459.84
557.948	36450.89
558.158	36445.38
558.368	36440.04
558.577	36442.93
558.787	36440.57
558.997	36427.55
559.207	36419.8
559.416	36415.15
559.626	36408.55
559.836	36401.22
560.045	36411.13
560.255	36410.18
560.465	36414.38
560.674	36412.26
560.884	36401.33
561.093	36393.95
561.303	36394.69
561.512	36395.53
561.722	36385.31
561.932	36390.95
562.141	36395.08
562.351	36387.98
562.56	36384.46
562.769	36381.24
562.979	36386.95
563.188	36385.58
563.398	36395.08
563.607	36409.77
563.817	36412.75
564.026	36418.22
564.235	36416.13
564.445	36416.24
564.654	36410.89
564.863	36407.88
565.073	36401.13
565.282	36405.13
565.491	36398.02
565.7	36393.06
565.91	36378.98
566.119	36373.86
566.328	36371.68
566.537	36354.15
566.746	36334.71
566.956	36329.71
567.165	36312.75
567.374	36305.11
567.583	36290.4
567.792	36278.37
568.001	36258.15
568.21	36235.58
568.419	36209.55
568.628	36182.29
568.837	36164.46
569.046	36152.46
569.255	36124.4
569.464	36110.28
569.673	36087.66
569.882	36063.17
570.091	36045.18
570.3	36025.37
570.509	36009.58
570.718	35999.98
570.927	35983.78
571.135	35981.97
571.344	35972.57
571.553	35972.95
571.762	35967.71
571.971	35962.33
572.18	35948.28
572.388	35936.51
572.597	35915.68
572.806	35899.35
573.014	35882.71
573.223	35868.55
573.432	35844.57
573.641	35820.09
573.849	35789.69
574.058	35767.84
574.266	35751.68
574.475	35729.53
574.684	35707.69
574.892	35709.37
575.101	35702.13
575.309	35697.49
575.518	35684.64
575.726	35675.22
575.935	35671.73
576.143	35669.15
576.352	35647.22
576.56	35635.71
576.769	35620.66
576.977	35609.29
577.186	35579.58
577.394	35560.4
577.602	35531.38
577.811	35520.97
578.019	35508.04
578.228	35475.93
578.436	35449.48
578.644	35441.82
578.852	35417.44
579.061	35403.57
579.269	35384.58
579.477	35367.68
579.685	35349.97
579.894	35334.66
580.102	35317.15
580.31	35295.84
580.518	35281.86
580.726	35267.46
580.935	35247.06
581.143	35227.28
581.351	35215.6
581.559	35195.42
581.767	35170.8
581.975	35142.62
582.183	35116.6
582.391	35097.75
582.599	35076.09
582.807	35061.69
583.015	35041.04
583.223	35025.58
583.431	35002.66
583.639	34977.2
583.847	34968.48
584.055	34955.68
584.263	34945.15
584.471	34921.77
584.678	34889.57
584.886	34866.53
585.094	34842.98
585.302	34816.06
585.51	34794.02
585.718	34783.69
585.925	34757.46
586.133	34735.53
586.341	34711.15
586.549	34684.31
586.756	34678.22
586.964	34668.02
587.172	34650.77
587.379	34621.53
587.587	34598.64
587.795	34573.28
588.002	34536.17
588.21	34514.89
588.417	34481.91
588.625	34456.6
588.833	34427.75
589.04	34393.78
589.248	34364.29
589.455	34344.53
589.663	34334.75
589.87	34322.26
590.078	34304.8
590.285	34291.8
590.492	34268.13
590.7	34252.44
590.907	34236.4
591.115	34227.33
591.322	34212.84
591.529	34188.68
591.737	34155.66
591.944	34119.48
592.151	34094.17
592.359	34062.66
592.566	34031.46
592.773	34007.48
592.981	33975.89
593.188	33954.04
593.395	33926.08
593.602	33899.75
593.809	33878.71
594.017	33856.71
594.224	33837.73
594.431	33813.46
594.638	33789.55
594.845	33765.89
595.052	33738.68
595.259	33710.68
595.466	33684.42
595.673	33655.46
595.88	33630.82
596.088	33604.17
596.295	33579.35
596.502	33557.22
596.709	33531.71
596.915	33508.17
597.122	33493.13
597.329	33473.88
597.536	33454.44
597.743	33433.42
597.95	33419
598.157	33394
598.364	33358.06
598.571	33327.53
598.777	33288
598.984	33236.98
599.191	33181.98
599.398	33119.42
599.605	33066.55
599.811	33008.31
600.018	32948.64
600.225	32888.68
600.431	32835.42
600.638	32797.78
600.845	32757.49
601.052	32721.15
601.258	32681.46
601.465	32645.58
601.671	32598.71
601.878	32536.64
602.085	32462.64
602.291	32372.31
602.498	32256.4
602.704	32113.78
602.911	31951.84
603.117	31769.33
603.324	31573.09
603.53	31359.73
603.737	31131.51
603.943	30893.26
604.15	30651.15
604.356	30403.08
604.562	30146.08
604.769	29888.2
604.975	29620.51
605.181	29360.11
605.388	29098.82
605.594	28833.82
605.8	28575.58
606.007	28310.71
606.213	28041.29
606.419	27765.04
606.625	27486.89
606.832	27215.8
607.038	26949.53
607.244	26693.84
607.45	26433.8
607.656	26162.55
607.863	25878.02
608.069	25595.48
608.275	25314.02
608.481	25037.51
608.687	24761.69
608.893	24485.86
609.099	24207
609.305	23914.49
609.511	23625.77
609.717	23321.97
609.923	23029.97
610.129	22729.89
610.335	22436.55
610.541	22142.75
610.747	21841.18
610.953	21528.31
611.159	21216.53
611.365	20898.75
611.571	20583.35
611.776	20265.48
611.982	19951.64
612.188	19625.15
612.394	19311.44
612.6	18986.44
612.806	18653.71
613.011	18324.64
613.217	18002.44
613.423	17679.13
613.628	17362.88
613.834	17046.13
614.04	16728.82
614.246	16414.49
614.451	16112.91
614.657	15821.24
614.862	15537.66
615.068	15261.64
615.274	14988.75
615.479	14715.71
615.685	14454.09
615.89	14190.89
616.096	13933.44
616.301	13671.35
616.507	13416.18
616.712	13153.98
616.918	12887.95
617.123	12611.08
617.329	12337.31
617.534	12060.35
617.74	11787.44
617.945	11504.57
618.15	11204.15
618.356	10737.98
618.561	9881.73
618.766	8838.6
618.972	7765.91
619.177	6718.2
619.382	5699.4
619.588	4703.95
619.793	4111.31
619.998	3416.3
620.203	2583.14
620.408	1575.6
620.614	583.43
