Data from test1_MAYP1115451__2__10-14-38-390.txt Node

Date: Wed Jun 12 10:14:38 MDT 2024
User: Modes Lab
Spectrometer: MAYP111545
Trigger mode: 0
Integration Time (sec): 8.000000E-3
Scans to average: 5
Electric dark correction enabled: true
Nonlinearity correction enabled: false
Boxcar width: 5
XAxis mode: Wavelengths
Number of Pixels in Spectrum: 2068
>>>>>Begin Spectral Data<<<<<
165.214	162.4
165.449	162.82
165.683	172.28
165.918	181.8
166.152	188.29
166.387	193.04
166.621	125.73
166.856	164.17
167.09	183.32
167.325	206.79
167.559	223.24
167.794	237.48
168.028	244.7
168.263	246.01
168.497	245.86
168.732	247.08
168.966	248.9
169.2	249.12
169.435	251.1
169.669	252.1
169.903	253.02
170.138	254.9
170.372	257.19
170.606	258.73
170.841	259.7
171.075	260.82
171.309	261.39
171.544	262.66
171.778	264.35
172.012	265.9
172.246	266.93
172.48	268.93
172.715	270.57
172.949	272.41
173.183	274.26
173.417	276.15
173.651	278.21
173.885	280.24
174.119	280.44
174.354	281.21
174.588	280.53
174.822	281.75
175.056	282.17
175.29	282.72
175.524	282.15
175.758	282.86
175.992	283.08
176.226	281.82
176.46	282.17
176.694	283.82
176.928	284.53
177.162	285.9
177.396	286.37
177.63	287.12
177.864	288.26
178.097	289.9
178.331	289.53
178.565	289.9
178.799	291.82
179.033	292.21
179.267	292.33
179.5	293.12
179.734	293.52
179.968	294.79
180.202	296.08
180.436	295.42
180.669	295.59
180.903	297.13
181.137	298.75
181.371	298.99
181.604	299.06
181.838	300.06
182.072	301.39
182.305	303.21
182.539	304.26
182.772	304.95
183.006	307.13
183.24	308.22
183.473	312.28
183.707	312.77
183.94	314.79
184.174	317.21
184.408	318.17
184.641	318.9
184.875	319.19
185.108	320.55
185.342	321.86
185.575	323.35
185.808	324.44
186.042	323.66
186.275	324.55
186.509	324.39
186.742	326.28
186.976	327.24
187.209	329.19
187.442	331.41
187.676	332.86
187.909	334.57
188.142	335.33
188.376	337.48
188.609	337.55
188.842	339.39
189.076	341.9
189.309	341.97
189.542	344.86
189.775	346.88
190.009	347.72
190.242	349.68
190.475	351.44
190.708	353.42
190.941	354.75
191.174	357.72
191.408	360.13
191.641	362.35
191.874	364.42
192.107	366.9
192.34	368.02
192.573	370.95
192.806	371.08
193.039	372.37
193.272	374.02
193.505	375.66
193.738	377.15
193.971	378.39
194.204	380.17
194.437	382.08
194.67	382.32
194.903	383.5
195.136	384.9
195.369	388.3
195.602	389.72
195.835	392.01
196.068	395.12
196.301	397.35
196.533	399.12
196.766	399.72
196.999	401.75
197.232	404.64
197.465	405.64
197.698	408.52
197.93	410.64
198.163	413.64
198.396	414.42
198.629	415.46
198.861	416.61
199.094	419.44
199.327	422.15
199.559	423.81
199.792	425.73
200.025	430.22
200.257	432.32
200.49	434.48
200.723	436.24
200.955	439.44
201.188	442.13
201.42	444.68
201.653	447.24
201.886	450.08
202.118	452.99
202.351	456.08
202.583	457.75
202.816	459.42
203.048	460.61
203.281	463.06
203.513	465.17
203.745	468.55
203.978	470.13
204.21	471.77
204.443	472.92
204.675	474.32
204.907	474.77
205.14	476.66
205.372	478.55
205.605	481.77
205.837	483.92
206.069	486.3
206.302	486.04
206.534	487.15
206.766	489.59
206.998	493.15
207.231	496.04
207.463	500.21
207.695	503.86
207.927	506.64
208.159	509.1
208.392	510.99
208.624	512.73
208.856	515.22
209.088	518.86
209.32	522.15
209.552	524.06
209.784	525.9
210.017	527.35
210.249	528.01
210.481	530.24
210.713	532.21
210.945	534.88
211.177	538.37
211.409	540.72
211.641	543.93
211.873	545.04
212.105	545.62
212.337	549.01
212.569	550.08
212.801	552.41
213.033	554.33
213.264	554.7
213.496	555.9
213.728	556.93
213.96	559.12
214.192	560.68
214.424	562.06
214.656	566.02
214.887	567.21
215.119	570.12
215.351	571.52
215.583	573.41
215.815	576.01
216.046	578.72
216.278	579.17
216.51	582.32
216.741	583.59
216.973	585.44
217.205	587.46
217.436	588.62
217.668	589.86
217.9	592.1
218.131	592.95
218.363	594.06
218.595	594.57
218.826	596.44
219.058	596.44
219.289	595.9
219.521	597.06
219.752	597.15
219.984	598.52
220.215	598.12
220.447	598.75
220.678	599.48
220.91	601.13
221.141	603.04
221.373	604.81
221.604	606.33
221.836	610.17
222.067	611.46
222.298	612.61
222.53	613.48
222.761	614.28
222.993	615.35
223.224	617.73
223.455	619.53
223.686	620.37
223.918	621.44
224.149	622.24
224.38	621.64
224.612	622.52
224.843	622.52
225.074	623.55
225.305	626.22
225.536	626.93
225.768	628.22
225.999	627.5
226.23	628.41
226.461	628.77
226.692	629.61
226.923	630.33
227.155	632.82
227.386	635.02
227.617	635.39
227.848	634.73
228.079	635.41
228.31	634.17
228.541	635.92
228.772	635.46
229.003	636.17
229.234	635.12
229.465	635.79
229.696	633.46
229.927	632.64
230.158	632.57
230.389	632.61
230.62	632.72
230.85	634.06
231.081	632.57
231.312	632.88
231.543	632.39
231.774	633.32
232.005	633.72
232.236	634.12
232.466	634.53
232.697	635.95
232.928	637.68
233.159	637.17
233.389	637.59
233.62	638.5
233.851	638.68
234.082	638.97
234.312	639.24
234.543	639.12
234.774	638.88
235.004	637.84
235.235	637.19
235.466	635.35
235.696	635.19
235.927	634.42
236.157	634.21
236.388	633.95
236.618	634.06
236.849	631.99
237.08	631.37
237.31	630.92
237.541	631.52
237.771	629.13
238.002	629.12
238.232	629.37
238.463	628.95
238.693	628.59
238.923	628.77
239.154	627.59
239.384	628.57
239.615	629.19
239.845	628.39
240.075	628.57
240.306	630.04
240.536	630.39
240.766	629.9
240.997	628.5
241.227	627.86
241.457	627.92
241.687	627.48
241.918	628.06
242.148	626.44
242.378	627.22
242.608	625.22
242.839	624.44
243.069	622.84
243.299	622.32
243.529	624.41
243.759	623.72
243.989	623.92
244.22	624.19
244.45	623.01
244.68	622.82
244.91	622.19
245.14	622.19
245.37	621.93
245.6	622.81
245.83	622.39
246.06	619.93
246.29	620.99
246.52	618.06
246.75	616.66
246.98	615.15
247.21	615.02
247.44	614.52
247.67	613.5
247.9	612.99
248.13	612.37
248.359	612.88
248.589	611.61
248.819	610.04
249.049	610.26
249.279	610.1
249.509	611.01
249.738	610.22
249.968	608.92
250.198	608.22
250.428	608.59
250.657	606.53
250.887	605.79
251.117	605.22
251.347	605.26
251.576	604.32
251.806	604.37
252.036	603.48
252.265	602.32
252.495	602.06
252.725	602.46
252.954	600.77
253.184	601.46
253.413	600.1
253.643	600.57
253.873	599.99
254.102	600.79
254.332	600.53
254.561	600.53
254.791	600.5
255.02	600.37
255.25	600.53
255.479	599.17
255.708	599.21
255.938	599.77
256.167	598.86
256.397	596.01
256.626	593.92
256.856	592.53
257.085	591.33
257.314	590.75
257.544	590.68
257.773	588.68
258.002	588.13
258.232	586.53
258.461	585.33
258.69	585.06
258.919	585.72
259.149	584.28
259.378	583.12
259.607	582.55
259.836	581.32
260.065	579.64
260.295	578.62
260.524	579.06
260.753	578.46
260.982	577.15
261.211	575.52
261.44	574.44
261.669	574.93
261.899	575.17
262.128	573.77
262.357	573.53
262.586	572.44
262.815	573.21
263.044	571.42
263.273	573.1
263.502	572.35
263.731	570.97
263.96	570.93
264.189	570.17
264.418	569.24
264.646	568.32
264.875	566.86
265.104	565.99
265.333	565.12
265.562	564.12
265.791	560.59
266.02	558.72
266.249	558.75
266.477	557.77
266.706	556.02
266.935	554.42
267.164	553.75
267.393	552.5
267.621	551.82
267.85	550.77
268.079	550.72
268.307	549.77
268.536	549.53
268.765	549.9
268.993	549.04
269.222	549.35
269.451	548.95
269.679	548.99
269.908	550.44
270.137	550.06
270.365	549.92
270.594	550.48
270.822	551.02
271.051	550.79
271.279	550.06
271.508	550.15
271.736	550.5
271.965	550.84
272.193	550.61
272.422	550.21
272.65	551.39
272.879	550.21
273.107	550.21
273.336	550.12
273.564	549.72
273.792	549.02
274.021	548.46
274.249	547.06
274.477	546.39
274.706	545.61
274.934	544.33
275.162	542.1
275.391	541.33
275.619	539.66
275.847	538.37
276.075	537.57
276.304	535.59
276.532	535.33
276.76	534.37
276.988	532.86
277.216	531.62
277.445	531.1
277.673	530.13
277.901	529.95
278.129	529.64
278.357	528.64
278.585	529.21
278.813	529.92
279.041	528.42
279.269	528.42
279.497	528.99
279.725	528.7
279.954	527.52
280.182	526.95
280.41	525.77
280.637	525.15
280.865	524.5
281.093	522.95
281.321	521.82
281.549	520.99
281.777	519.79
282.005	518.61
282.233	518.32
282.461	517.39
282.689	517.33
282.916	517.37
283.144	515.42
283.372	514.79
283.6	515.68
283.828	514.19
284.055	514.1
284.283	513.57
284.511	512.3
284.739	512.72
284.966	513.21
285.194	512.97
285.422	511.5
285.649	512.33
285.877	512.46
286.105	510.81
286.332	511.28
286.56	511.41
286.788	509.79
287.015	510.37
287.243	508.68
287.47	507.59
287.698	507.5
287.925	507.52
288.153	505.81
288.381	505.21
288.608	504.15
288.836	503.08
289.063	501.68
289.29	502.19
289.518	501.37
289.745	500.1
289.973	498.93
290.2	497.32
290.428	496.81
290.655	497.39
290.882	496.32
291.11	496.95
291.337	496.68
291.564	495.82
291.792	496.35
292.019	496.06
292.246	495.84
292.473	495.62
292.701	496.48
292.928	495.17
293.155	495.13
293.382	495.22
293.61	493.46
293.837	492.32
294.064	493.1
294.291	491.64
294.518	490.82
294.745	490.39
294.972	489.13
295.2	487.86
295.427	488.46
295.654	486.44
295.881	485.99
296.108	485.62
296.335	486.61
296.562	485.22
296.789	484.3
297.016	484.62
297.243	483.75
297.47	485.17
297.697	483.62
297.924	483.24
298.151	482.84
298.378	482.06
298.604	481.46
298.831	480.01
299.058	480.44
299.285	480.21
299.512	478.33
299.739	478.32
299.966	477.82
300.192	477.95
300.419	476.04
300.646	475.99
300.873	475.04
301.099	474.77
301.326	474.62
301.553	473.32
301.78	473.22
302.006	472.79
302.233	471.86
302.46	470.33
302.686	470.41
302.913	471.88
303.14	471.64
303.366	471.42
303.593	471.35
303.819	470.66
304.046	469.53
304.272	469.57
304.499	469.99
304.725	471.13
304.952	470.15
305.179	468.73
305.405	468.57
305.631	467.19
305.858	466.99
306.084	465.92
306.311	465.97
306.537	466.95
306.764	466.35
306.99	466.12
307.216	465.48
307.443	465.64
307.669	465.95
307.895	464.55
308.122	464.66
308.348	464.04
308.574	464.44
308.801	463.5
309.027	463.37
309.253	463.37
309.479	463.15
309.706	462.02
309.932	462.06
310.158	461.93
310.384	461.33
310.61	461.84
310.837	461.44
311.063	460.19
311.289	459.68
311.515	458.44
311.741	457.7
311.967	457.59
312.193	458.46
312.419	457.88
312.645	458.19
312.871	458.77
313.097	458.04
313.323	459.15
313.549	460.75
313.775	462.35
314.001	463.28
314.227	462.62
314.453	462.57
314.679	463.02
314.905	464.01
315.131	464.64
315.357	464.84
315.583	465.79
315.809	465.1
316.034	465.24
316.26	465.48
316.486	465.06
316.712	466.82
316.938	467.22
317.163	467.35
317.389	467.21
317.615	467.61
317.841	467.57
318.066	467.95
318.292	468.66
318.518	469.04
318.743	469.57
318.969	470.55
319.195	470.21
319.42	470.55
319.646	470.82
319.872	472.48
320.097	471.37
320.323	473.41
320.548	475.24
320.774	476.37
320.999	477.1
321.225	477.81
321.45	479.17
321.676	480.35
321.901	481.5
322.127	482.73
322.352	482.52
322.578	485.64
322.803	486.08
323.029	486.92
323.254	490.06
323.479	490.64
323.705	491.55
323.93	492.7
324.155	494.57
324.381	496.59
324.606	498.04
324.831	501.1
325.057	503.35
325.282	505.73
325.507	507.72
325.732	508.3
325.958	512.01
326.183	515.22
326.408	518.15
326.633	522.82
326.858	525.62
327.084	528.57
327.309	529.57
327.534	532.84
327.759	535.5
327.984	538.88
328.209	541.13
328.434	543.81
328.659	546.52
328.884	549.39
329.109	551.86
329.334	554.41
329.559	557.82
329.784	562.33
330.009	564.97
330.234	568.82
330.459	571.82
330.684	576.24
330.909	580.77
331.134	584.82
331.359	589.77
331.584	594.28
331.809	597.48
332.034	600.3
332.259	604.5
332.483	607.92
332.708	611.79
332.933	615.57
333.158	620.46
333.383	623.84
333.607	628.02
333.832	632.37
334.057	636.37
334.282	641.88
334.506	648.68
334.731	655.73
334.956	662.06
335.18	668.73
335.405	675.99
335.63	681.81
335.854	688.3
336.079	694.37
336.303	700.17
336.528	705.06
336.753	711.46
336.977	716.28
337.202	720.44
337.426	726.04
337.651	731.19
337.875	736.68
338.1	743.08
338.324	749.21
338.549	756.7
338.773	762.84
338.997	769.37
339.222	777.5
339.446	785.22
339.671	793.37
339.895	801.06
340.119	809.9
340.344	817.39
340.568	824.97
340.792	833.59
341.017	840.72
341.241	848.21
341.465	857.17
341.689	864.64
341.914	872.53
342.138	880.04
342.362	888.48
342.586	895.01
342.811	903.42
343.035	911.64
343.259	920.44
343.483	929.64
343.707	938.84
343.931	947.93
344.155	957.02
344.38	967.53
344.604	976.66
344.828	986.13
345.052	996.62
345.276	1005.72
345.5	1014.82
345.724	1024.42
345.948	1034.5
346.172	1044.01
346.396	1053.82
346.62	1066.21
346.844	1075.61
347.068	1086.22
347.292	1096.26
347.515	1105.88
347.739	1117.64
347.963	1129.21
348.187	1137.73
348.411	1148.1
348.635	1157.55
348.859	1166.08
349.082	1174.9
349.306	1185.22
349.53	1197.55
349.754	1207.42
349.977	1218.9
350.201	1227.57
350.425	1237.39
350.649	1249.42
350.872	1259.48
351.096	1272.57
351.32	1286.13
351.543	1298.92
351.767	1311.53
351.99	1321.46
352.214	1334.66
352.438	1345.66
352.661	1356.32
352.885	1368.73
353.108	1381.01
353.332	1393.44
353.555	1405.95
353.779	1418.24
354.002	1429.26
354.226	1439.73
354.449	1451.73
354.673	1461.93
354.896	1475.5
355.12	1491.73
355.343	1504.42
355.566	1517.17
355.79	1531.04
356.013	1543.88
356.237	1554.77
356.46	1565.59
356.683	1578.7
356.907	1590.17
357.13	1604.19
357.353	1615.86
357.576	1625.79
357.8	1637.21
358.023	1650.21
358.246	1661.41
358.469	1672.62
358.693	1686.9
358.916	1699.01
359.139	1712.21
359.362	1725.77
359.585	1740.68
359.808	1753.12
360.031	1767.12
360.255	1782.48
360.478	1795.32
360.701	1807.84
360.924	1821.53
361.147	1833.88
361.37	1848.42
361.593	1863.86
361.816	1878.88
362.039	1891.42
362.262	1905.53
362.485	1919.79
362.708	1930.66
362.931	1943.17
363.154	1956.48
363.377	1969.73
363.599	1985.33
363.822	1998.33
364.045	2010.81
364.268	2024.32
364.491	2039.13
364.714	2052.28
364.936	2066.66
365.159	2083.72
365.382	2099.24
365.605	2114.92
365.828	2132.01
366.05	2144.52
366.273	2161.97
366.496	2175.33
366.718	2191.17
366.941	2206.3
367.164	2222.92
367.386	2237.37
367.609	2253.53
367.832	2268.61
368.054	2284.66
368.277	2298.68
368.5	2317.08
368.722	2332.72
368.945	2350.88
369.167	2368.66
369.39	2382.99
369.612	2399.22
369.835	2416.61
370.057	2430.7
370.28	2448.1
370.502	2465.39
370.725	2484.01
370.947	2501.72
371.169	2517.68
371.392	2534.61
371.614	2552.86
371.837	2571.3
372.059	2591.06
372.281	2610.73
372.504	2628.04
372.726	2643.77
372.948	2659.04
373.171	2676.15
373.393	2693.12
373.615	2709.75
373.837	2730.15
374.06	2742.68
374.282	2760.12
374.504	2775.39
374.726	2793.93
374.948	2813.3
375.17	2834.01
375.393	2857.44
375.615	2878.01
375.837	2896.92
376.059	2918.99
376.281	2935.42
376.503	2956.57
376.725	2974.88
376.947	2997.04
377.169	3014.93
377.391	3037.35
377.613	3057.92
377.835	3076.9
378.057	3095.02
378.279	3115.77
378.501	3134.77
378.723	3157.81
378.945	3181.9
379.167	3205.53
379.389	3227.53
379.611	3252.59
379.833	3273.08
380.054	3298.41
380.276	3321.48
380.498	3347.24
380.72	3371.95
380.942	3398.24
381.163	3421.39
381.385	3445.61
381.607	3471.19
381.829	3493.9
382.05	3518.88
382.272	3543.21
382.494	3565.66
382.716	3591.19
382.937	3616.04
383.159	3642.59
383.381	3668.68
383.602	3695.55
383.824	3721.59
384.045	3747.44
384.267	3779.26
384.488	3804.02
384.71	3832.48
384.932	3862.13
385.153	3889.68
385.375	3918.28
385.596	3942.95
385.818	3970.52
386.039	3995.55
386.261	4021.84
386.482	4050.21
386.703	4074.01
386.925	4100.44
387.146	4126.82
387.368	4153.66
387.589	4183.7
387.81	4212.64
388.032	4243.53
388.253	4273.41
388.474	4303.33
388.696	4333.57
388.917	4361.68
389.138	4394.57
389.359	4426.64
389.581	4459.04
389.802	4491.46
390.023	4522.72
390.244	4552.52
390.465	4582.88
390.687	4609.52
390.908	4643.59
391.129	4677.21
391.35	4707.35
391.571	4735.08
391.792	4763.15
392.013	4796.04
392.234	4824.64
392.455	4853.93
392.677	4886.55
392.898	4917.12
393.119	4953.99
393.34	4984.92
393.561	5017.72
393.782	5054.39
394.003	5087.04
394.223	5118.82
394.444	5147.93
394.665	5184.24
394.886	5218.5
395.107	5251.68
395.328	5285.73
395.549	5317.62
395.77	5353.26
395.99	5385.5
396.211	5417.42
396.432	5455.48
396.653	5490.42
396.874	5527.26
397.094	5558.79
397.315	5592.19
397.536	5624.99
397.757	5660.26
397.977	5694.37
398.198	5726.1
398.419	5757.99
398.639	5793.68
398.86	5828.32
399.081	5864.77
399.301	5899.68
399.522	5933.73
399.742	5967.02
399.963	6003.99
400.184	6043.93
400.404	6079.28
400.625	6115.99
400.845	6152.66
401.066	6183.1
401.286	6215.13
401.507	6249.3
401.727	6283.21
401.948	6317.61
402.168	6357.3
402.388	6391.9
402.609	6423.88
402.829	6462.5
403.05	6496.04
403.27	6533.42
403.49	6574.22
403.711	6609.62
403.931	6645.52
404.151	6680.75
404.372	6719.61
404.592	6753.42
404.812	6788.62
405.032	6822.97
405.253	6855.01
405.473	6890.44
405.693	6923.86
405.913	6957.46
406.133	6995.42
406.353	7038.48
406.574	7074.01
406.794	7109.08
407.014	7147.28
407.234	7183.04
407.454	7215.06
407.674	7253.48
407.894	7291.97
408.114	7331.04
408.334	7369.32
408.554	7404.28
408.774	7434.57
408.994	7476.62
409.214	7517.28
409.434	7552.66
409.654	7589.62
409.874	7630.41
410.094	7665.97
410.314	7705.02
410.534	7743.99
410.754	7780.21
410.974	7818.77
411.193	7861.04
411.413	7900.64
411.633	7932.33
411.853	7969.32
412.073	8007.39
412.292	8045.32
412.512	8086.01
412.732	8120.41
412.952	8160.57
413.171	8203.37
413.391	8245.24
413.611	8285.19
413.831	8327.3
414.05	8371.5
414.27	8416.28
414.489	8464.06
414.709	8506.21
414.929	8551.66
415.148	8599.7
415.368	8642.97
415.587	8682.82
415.807	8726.08
416.026	8766.28
416.246	8800.28
416.465	8845.99
416.685	8890.39
416.904	8932.93
417.124	8983.66
417.343	9027.01
417.563	9066.97
417.782	9110.17
418.002	9157.08
418.221	9198.19
418.44	9245.99
418.66	9295.81
418.879	9342.7
419.098	9385.41
419.318	9425.82
419.537	9465.17
419.756	9507.41
419.976	9554.81
420.195	9596.55
420.414	9635.35
420.633	9679.88
420.853	9723.53
421.072	9763.46
421.291	9804.1
421.51	9846.7
421.729	9891.84
421.948	9934.26
422.168	9972.32
422.387	10014.7
422.606	10059.92
422.825	10104.5
423.044	10150.32
423.263	10195.17
423.482	10241.81
423.701	10290.37
423.92	10336.26
424.139	10379.15
424.358	10426.64
424.577	10473.7
424.796	10520.1
425.015	10569.82
425.234	10618.79
425.453	10664.59
425.672	10708.52
425.891	10757.79
426.11	10797.1
426.328	10844.39
426.547	10892.93
426.766	10936.61
426.985	10987.26
427.204	11033.01
427.422	11073.72
427.641	11118.92
427.86	11165.21
428.079	11213.95
428.297	11256.04
428.516	11308.1
428.735	11354.73
428.954	11401.08
429.172	11450.92
429.391	11502.68
429.61	11548.79
429.828	11597.35
430.047	11648.52
430.265	11693.66
430.484	11737.97
430.703	11787.19
430.921	11828.28
431.14	11871.97
431.358	11921.22
431.577	11971.68
431.795	12012.61
432.014	12064.82
432.232	12114.15
432.451	12162.1
432.669	12218.15
432.887	12264.21
433.106	12313.44
433.324	12359.73
433.543	12413.04
433.761	12455.59
433.979	12495.57
434.198	12541.39
434.416	12582.93
434.634	12625.7
434.853	12673.24
435.071	12710.48
435.289	12756.26
435.507	12801.21
435.726	12852.3
435.944	12893.5
436.162	12940.19
436.38	12988.88
436.598	13033.46
436.817	13085.24
437.035	13137.26
437.253	13184.17
437.471	13239.99
437.689	13291.68
437.907	13341.04
438.125	13388.88
438.343	13437.64
438.561	13490.9
438.78	13543.06
438.998	13592.79
439.216	13638.81
439.434	13681.81
439.652	13727.62
439.869	13771.77
440.087	13818.97
440.305	13863.13
440.523	13908.79
440.741	13958.06
440.959	14005.64
441.177	14051.3
441.395	14109.37
441.613	14161.73
441.831	14212.28
442.048	14254.95
442.266	14303.79
442.484	14347.12
442.702	14400.08
442.919	14455.9
443.137	14502.39
443.355	14544.17
443.573	14595.55
443.79	14637.57
444.008	14685.33
444.226	14730.99
444.443	14786.26
444.661	14831.32
444.879	14880.81
445.096	14928.57
445.314	14965.61
445.532	15016.59
445.749	15067.33
445.967	15108.84
446.184	15154.52
446.402	15199.13
446.619	15243.68
446.837	15288.35
447.054	15337.08
447.272	15393.46
447.489	15437.92
447.707	15499.33
447.924	15547.15
448.141	15594.84
448.359	15644.08
448.576	15695.57
448.794	15747.28
449.011	15797.92
449.228	15850.82
449.446	15894.48
449.663	15938.42
449.88	15994.48
450.098	16034.92
450.315	16084.64
450.532	16136.73
450.749	16187.22
450.967	16238.7
451.184	16283.41
451.401	16331.39
451.618	16379.97
451.835	16434.99
452.052	16486.13
452.27	16528.13
452.487	16579.04
452.704	16626.64
452.921	16670.59
453.138	16718.84
453.355	16756.26
453.572	16800.7
453.789	16854.32
454.006	16900.01
454.223	16947.13
454.44	16994.01
454.657	17044.06
454.874	17087.97
455.091	17131.44
455.308	17183.48
455.525	17231.64
455.742	17287.53
455.959	17337.59
456.176	17389.32
456.393	17436.66
456.609	17487.86
456.826	17530.06
457.043	17572.82
457.26	17622.39
457.477	17670.32
457.693	17713.17
457.91	17758.28
458.127	17797.82
458.344	17847.5
458.56	17881.28
458.777	17923.7
458.994	17964.32
459.21	18004.19
459.427	18044.13
459.644	18080.35
459.86	18113.46
460.077	18155.42
460.294	18191.75
460.51	18226.13
460.727	18257.41
460.943	18293.53
461.16	18326.1
461.376	18362.44
461.593	18397.12
461.809	18438.28
462.026	18477.52
462.242	18525.12
462.459	18561.53
462.675	18597.81
462.892	18643.22
463.108	18686.73
463.324	18729.48
463.541	18772.01
463.757	18810.17
463.974	18856.62
464.19	18902.82
464.406	18945.68
464.623	18989.01
464.839	19044.01
465.055	19098.42
465.271	19149.75
465.488	19193.59
465.704	19238.5
465.92	19289.33
466.136	19337.79
466.353	19387.72
466.569	19437.9
466.785	19491.44
467.001	19551.41
467.217	19597.26
467.433	19654.12
467.649	19713.06
467.865	19769.26
468.082	19833.86
468.298	19894.82
468.514	19957.21
468.73	20024.62
468.946	20088.24
469.162	20152.99
469.378	20208.77
469.594	20272.02
469.81	20331.37
470.026	20391.97
470.242	20459.15
470.457	20522.32
470.673	20587.77
470.889	20653.17
471.105	20714.26
471.321	20776.42
471.537	20843.99
471.753	20914.15
471.968	20985.46
472.184	21057.61
472.4	21131.84
472.616	21203.92
472.832	21279.9
473.047	21347.01
473.263	21416.93
473.479	21490.19
473.694	21568.35
473.91	21647.35
474.126	21714.48
474.341	21790.79
474.557	21862.08
474.773	21930.02
474.988	21998.22
475.204	22068.26
475.42	22144.64
475.635	22224.72
475.851	22298.53
476.066	22360.37
476.282	22427.5
476.497	22507.66
476.713	22572.53
476.928	22640.68
477.144	22711.57
477.359	22777.55
477.575	22849.37
477.79	22917.46
478.005	22979.26
478.221	23043.19
478.436	23108.37
478.651	23165.01
478.867	23218.26
479.082	23275.73
479.297	23336.55
479.513	23389.79
479.728	23446.97
479.943	23493.42
480.159	23542.81
480.374	23594.55
480.589	23647.26
480.804	23700.22
481.019	23755.55
481.235	23802.68
481.45	23851.97
481.665	23901.7
481.88	23949.35
482.095	24009.95
482.31	24063.41
482.525	24119.3
482.741	24168.21
482.956	24221.84
483.171	24267.01
483.386	24304.39
483.601	24355.28
483.816	24404.81
484.031	24447.5
484.246	24493.3
484.461	24533.7
484.676	24581.02
484.891	24626.97
485.105	24675.81
485.32	24713.13
485.535	24755.84
485.75	24808.81
485.965	24851.53
486.18	24888.73
486.395	24932.17
486.609	24976.01
486.824	25012.15
487.039	25048.46
487.254	25085.08
487.469	25124.93
487.683	25164.84
487.898	25207.04
488.113	25242.22
488.327	25279.72
488.542	25323.59
488.757	25356.7
488.972	25393.84
489.186	25424.21
489.401	25459.41
489.615	25490.01
489.83	25522.55
490.045	25552.95
490.259	25592.68
490.474	25628.55
490.688	25662.3
490.903	25692.19
491.117	25731.37
491.332	25758.66
491.546	25796.59
491.761	25829.02
491.975	25863.61
492.19	25894.12
492.404	25927.86
492.618	25953.13
492.833	25979.66
493.047	26010.99
493.262	26034.86
493.476	26053.86
493.69	26088.35
493.905	26118.93
494.119	26144.88
494.333	26177.26
494.547	26205.82
494.762	26239.44
494.976	26265.93
495.19	26295.52
495.404	26311.26
495.619	26346.08
495.833	26380.88
496.047	26402.97
496.261	26425.19
496.475	26439.53
496.689	26442.26
496.903	26445.5
497.117	26446.3
497.332	26450.93
497.546	26445.39
497.76	26452.88
497.974	26443.02
498.188	26425.55
498.402	26411.64
498.616	26399.28
498.83	26395.48
499.044	26398.04
499.258	26397.81
499.472	26400.35
499.685	26398.88
499.899	26402.28
500.113	26404.44
500.327	26411.15
500.541	26432.21
500.755	26446.95
500.969	26464.66
501.183	26482.77
501.396	26499.9
501.61	26517.53
501.824	26529.86
502.038	26558.79
502.251	26585.02
502.465	26608.39
502.679	26628.92
502.892	26636.79
503.106	26651.22
503.32	26672.55
503.533	26685.06
503.747	26705.97
503.961	26729.64
504.174	26758.88
504.388	26779.5
504.602	26804.55
504.815	26836.57
505.029	26870.9
505.242	26916.7
505.456	26969.75
505.669	27016.39
505.883	27072.04
506.096	27120.22
506.31	27173.55
506.523	27225.19
506.736	27278.35
506.95	27340.39
507.163	27392.5
507.377	27452.61
507.59	27509.88
507.803	27567.59
508.017	27623.06
508.23	27683.73
508.443	27753.92
508.657	27824.35
508.87	27892.93
509.083	27966.88
509.296	28030.39
509.51	28115.08
509.723	28198.15
509.936	28275.97
510.149	28355.77
510.363	28443.86
510.576	28529.1
510.789	28618.72
511.002	28710.61
511.215	28816.12
511.428	28910.42
511.641	29017.59
511.854	29110.99
512.067	29208.42
512.28	29318.79
512.493	29429.12
512.707	29536.88
512.92	29648.52
513.132	29745.66
513.345	29841.52
513.558	29939.04
513.771	30042.19
513.984	30144.73
514.197	30257.72
514.41	30369.28
514.623	30478.68
514.836	30585.1
515.049	30687.02
515.262	30792.72
515.474	30901.15
515.687	31008.12
515.9	31103.42
516.113	31207.04
516.325	31313.5
516.538	31400.53
516.751	31485.19
516.964	31577.32
517.176	31665.59
517.389	31757.33
517.602	31836.82
517.814	31924.59
518.027	32007.08
518.24	32091.32
518.452	32164.02
518.665	32239.12
518.877	32328.15
519.09	32401.61
519.303	32464.32
519.515	32535.68
519.728	32601.92
519.94	32675.57
520.153	32734.81
520.365	32796.33
520.578	32861.79
520.79	32936.5
521.002	32996.06
521.215	33056.06
521.427	33117.41
521.64	33182.17
521.852	33237.02
522.064	33290.92
522.277	33346.44
522.489	33402.82
522.701	33458.64
522.914	33510.5
523.126	33560.48
523.338	33605.97
523.551	33646.61
523.763	33695.64
523.975	33752.48
524.187	33800.57
524.399	33854.35
524.612	33898.22
524.824	33948.01
525.036	34001.81
525.248	34046.86
525.46	34075.48
525.672	34122.57
525.884	34162.35
526.096	34205.08
526.308	34226.62
526.521	34258.59
526.733	34288.26
526.945	34321.35
527.157	34356.62
527.369	34381.57
527.581	34415.13
527.793	34452.02
528.004	34487.84
528.216	34521.97
528.428	34551.55
528.64	34586.19
528.852	34619.62
529.064	34647.48
529.276	34667.73
529.488	34687.1
529.699	34715.42
529.911	34736.86
530.123	34767.84
530.335	34790.79
530.547	34815.55
530.758	34840.61
530.97	34872.39
531.182	34911.15
531.393	34940.15
531.605	34983.19
531.817	35015.08
532.029	35051.22
532.24	35082.72
532.452	35113.5
532.663	35137.66
532.875	35164.5
533.087	35199.64
533.298	35228.37
533.51	35235.9
533.721	35261.64
533.933	35276.48
534.144	35305.7
534.356	35310.42
534.567	35330.02
534.779	35350.21
534.99	35380.46
535.202	35406.12
535.413	35420.3
535.624	35439.48
535.836	35464.3
536.047	35485.68
536.259	35510.66
536.47	35518.41
536.681	35535.15
536.893	35547.84
537.104	35550.73
537.315	35557.5
537.526	35571.77
537.738	35583.44
537.949	35595.15
538.16	35622.61
538.371	35636.55
538.582	35656.88
538.794	35679.32
539.005	35705.12
539.216	35731.86
539.427	35762.32
539.638	35779.22
539.849	35788.28
540.06	35805.52
540.272	35829.9
540.483	35830.59
540.694	35848.7
540.905	35860.21
541.116	35877.35
541.327	35892.88
541.538	35895.77
541.749	35902.19
541.96	35916.37
542.17	35935.57
542.381	35951.75
542.592	35950.44
542.803	35968.77
543.014	35971.08
543.225	35971.39
543.436	35970.5
543.647	35985.24
543.857	36000.93
544.068	36009.21
544.279	36021.1
544.49	36022.57
544.701	36026.84
544.911	36034.33
545.122	36038.57
545.333	36057.06
545.543	36071.21
545.754	36085.52
545.965	36085.13
546.175	36101.19
546.386	36118.04
546.597	36120.41
546.807	36135.17
547.018	36149.92
547.229	36162.59
547.439	36167.3
547.65	36171.77
547.86	36171.55
548.071	36179.44
548.281	36181.75
548.492	36182.26
548.702	36186.08
548.913	36194.28
549.123	36199.06
549.333	36201.22
549.544	36206.35
549.754	36216.72
549.965	36222.82
550.175	36241.15
550.385	36259.37
550.596	36286.06
550.806	36303.5
551.016	36319.97
551.227	36332.9
551.437	36347.86
551.647	36363.13
551.857	36380.5
552.068	36396.17
552.278	36409.33
552.488	36409.55
552.698	36409.44
552.908	36412.12
553.119	36414.22
553.329	36418.28
553.539	36430.61
553.749	36432.95
553.959	36436.68
554.169	36439.39
554.379	36444.24
554.589	36445.28
554.799	36458.04
555.009	36473.59
555.219	36480.55
555.429	36480.53
555.639	36485.64
555.849	36486.66
556.059	36489.19
556.269	36489.13
556.479	36486.77
556.689	36485.59
556.899	36495.01
557.109	36498.95
557.319	36496.52
557.528	36485.88
557.738	36485.33
557.948	36468.15
558.158	36449.55
558.368	36440.61
558.577	36430.79
558.787	36428.37
558.997	36421.06
559.207	36402.28
559.416	36392.97
559.626	36375.61
559.836	36367.13
560.045	36362.37
560.255	36368.37
560.465	36376.15
560.674	36377.79
560.884	36377.95
561.093	36373.73
561.303	36375.08
561.512	36381.95
561.722	36383.17
561.932	36383.93
562.141	36389.35
562.351	36382.08
562.56	36384.26
562.769	36382.32
562.979	36385.32
563.188	36394.68
563.398	36403.7
563.607	36400.19
563.817	36396.66
564.026	36387.02
564.235	36381.37
564.445	36378.12
564.654	36382.44
564.863	36379.04
565.073	36372.55
565.282	36370.52
565.491	36360.92
565.7	36351.21
565.91	36341.22
566.119	36330.1
566.328	36329.28
566.537	36319.61
566.746	36309.72
566.956	36294.04
567.165	36280.28
567.374	36271.82
567.583	36254.84
567.792	36240.57
568.001	36217.01
568.21	36196.66
568.419	36174.77
568.628	36146.82
568.837	36129.73
569.046	36103.52
569.255	36076.17
569.464	36049.01
569.673	36022.1
569.882	35992.59
570.091	35971.55
570.3	35952.42
570.509	35936.55
570.718	35936.61
570.927	35930.57
571.135	35926.97
571.344	35930.53
571.553	35944.19
571.762	35945.24
571.971	35953.12
572.18	35962.48
572.388	35944.17
572.597	35937.55
572.806	35928.13
573.014	35912.35
573.223	35896.24
573.432	35871.82
573.641	35846.9
573.849	35812.81
574.058	35789.24
574.266	35751.77
574.475	35724.81
574.684	35715.86
574.892	35712.97
575.101	35698.13
575.309	35682.39
575.518	35679.41
575.726	35665.66
575.935	35661.92
576.143	35645.08
576.352	35636.17
576.56	35632.08
576.769	35618.44
576.977	35608.64
577.186	35579.62
577.394	35568.48
577.602	35546.73
577.811	35529.68
578.019	35520.12
578.228	35499.33
578.436	35499.52
578.644	35473.46
578.852	35447.35
579.061	35421.92
579.269	35397.04
579.477	35374.35
579.685	35358.62
579.894	35343.37
580.102	35313.97
580.31	35290.44
580.518	35265.81
580.726	35239.06
580.935	35223.7
581.143	35205.7
581.351	35191.22
581.559	35172.95
581.767	35150.84
581.975	35120.64
582.183	35091.75
582.391	35068.32
582.599	35043.52
582.807	35029.44
583.015	35016.48
583.223	34998.37
583.431	34980.81
583.639	34967.01
583.847	34947.97
584.055	34936.44
584.263	34925.93
584.471	34901.19
584.678	34889.52
584.886	34873.08
585.094	34850.28
585.302	34824.64
585.51	34804.62
585.718	34796.13
585.925	34769.53
586.133	34743.44
586.341	34729.66
586.549	34702.08
586.756	34692.92
586.964	34668.61
587.172	34638.73
587.379	34612.35
587.587	34588.28
587.795	34563.39
588.002	34530.92
588.21	34507.93
588.417	34482.42
588.625	34453.75
588.833	34430.24
589.04	34405.24
589.248	34388.72
589.455	34374.84
589.663	34355.93
589.87	34334.84
590.078	34319.62
590.285	34294.95
590.492	34268.99
590.7	34259.97
590.907	34232.08
591.115	34204.48
591.322	34172.95
591.529	34141.79
591.737	34120.44
591.944	34094.41
592.151	34066.35
592.359	34034.12
592.566	34012.37
592.773	33985.04
592.981	33946.68
593.188	33921.73
593.395	33900.79
593.602	33882.84
593.809	33854.93
594.017	33830.92
594.224	33806.82
594.431	33789.66
594.638	33769.37
594.845	33735.39
595.052	33702.59
595.259	33683.46
595.466	33663.93
595.673	33642.19
595.88	33620.79
596.088	33604.48
596.295	33577.68
596.502	33559.93
596.709	33523.37
596.915	33498.5
597.122	33469.48
597.329	33456.62
597.536	33431.79
597.743	33406.06
597.95	33384.95
598.157	33357.26
598.364	33321.37
598.571	33284.46
598.777	33238.53
598.984	33190.86
599.191	33135.7
599.398	33101.33
599.605	33061.15
599.811	33007.92
600.018	32957.04
600.225	32904.77
600.431	32858.95
600.638	32816.48
600.845	32781.48
601.052	32745.32
601.258	32716.88
601.465	32679.35
601.671	32615.12
601.878	32539.15
602.085	32460.15
602.291	32368.82
602.498	32250.79
602.704	32108.13
602.911	31948.62
603.117	31761.04
603.324	31565.24
603.53	31358.93
603.737	31129.84
603.943	30907.02
604.15	30663.28
604.356	30414.88
604.562	30147.55
604.769	29887.77
604.975	29629.08
605.181	29365.21
605.388	29103.79
605.594	28845.32
605.8	28564.79
606.007	28298.39
606.213	28026.72
606.419	27758.55
606.625	27489.1
606.832	27218.75
607.038	26948.68
607.244	26687.06
607.45	26424.84
607.656	26151.52
607.863	25859.61
608.069	25585.73
608.275	25308.33
608.481	25024.86
608.687	24745.59
608.893	24463.79
609.099	24176.48
609.305	23898.75
609.511	23598.37
609.717	23301.97
609.923	23012.99
610.129	22724.92
610.335	22429.53
610.541	22133.21
610.747	21836.01
610.953	21532.12
611.159	21224.28
611.365	20921.39
611.571	20602.02
611.776	20288.48
611.982	19962.1
612.188	19641.06
612.394	19317.08
612.6	18988.1
612.806	18661.1
613.011	18334.48
613.217	18006.04
613.423	17682.37
613.628	17359.99
613.834	17040.86
614.04	16725.04
614.246	16418.75
614.451	16123.06
614.657	15824.22
614.862	15538.17
615.068	15259.02
615.274	14980.19
615.479	14711.77
615.685	14450.5
615.89	14190.95
616.096	13931.73
616.301	13673.12
616.507	13414.46
616.712	13140.46
616.918	12879.97
617.123	12615.53
617.329	12339.06
617.534	12062.35
617.74	11783.02
617.945	11499.01
618.15	11199.33
618.356	10724.19
618.561	9865.48
618.766	8825.59
618.972	7755.53
619.177	6709.01
619.382	5687.73
619.588	4695.01
619.793	4103.27
619.998	3408.89
620.203	2573.41
620.408	1563.5
620.614	584.6
