Data from test1_MAYP1115451__80__10-15-04-726.txt Node

Date: Wed Jun 12 10:15:04 MDT 2024
User: Modes Lab
Spectrometer: MAYP111545
Trigger mode: 0
Integration Time (sec): 8.000000E-3
Scans to average: 5
Electric dark correction enabled: true
Nonlinearity correction enabled: false
Boxcar width: 5
XAxis mode: Wavelengths
Number of Pixels in Spectrum: 2068
>>>>>Begin Spectral Data<<<<<
165.214	163.2
165.449	163.69
165.683	172.56
165.918	182.08
166.152	188.53
166.387	193.92
166.621	126.34
166.856	165.14
167.09	184.02
167.325	208
167.559	224.54
167.794	238.42
168.028	245.51
168.263	246.91
168.497	246.23
168.732	246.83
168.966	247.94
169.2	249.12
169.435	250.92
169.669	251.96
169.903	253.34
170.138	254.98
170.372	256
170.606	257.63
170.841	258.85
171.075	261.52
171.309	263.91
171.544	264.69
171.778	266.29
172.012	268.02
172.246	271.11
172.48	273.51
172.715	275.85
172.949	278.62
173.183	281.62
173.417	283.45
173.651	284.29
173.885	284.54
174.119	285.51
174.354	286.22
174.588	285.76
174.822	285.65
175.056	284.25
175.29	283.47
175.524	282.92
175.758	282.56
175.992	283.62
176.226	283.6
176.46	283.78
176.694	285.02
176.928	286
177.162	287.11
177.396	286.56
177.63	288.4
177.864	290.38
178.097	291.47
178.331	291.52
178.565	290.96
178.799	291.4
179.033	292.63
179.267	293.74
179.5	293.74
179.734	294.52
179.968	295.96
180.202	296.65
180.436	297.54
180.669	298.43
180.903	299.63
181.137	301.16
181.371	302.32
181.604	303.47
181.838	304.52
182.072	306.49
182.305	307.42
182.539	307.82
182.772	308.71
183.006	308.07
183.24	308.4
183.473	311.27
183.707	312.98
183.94	313.92
184.174	315.23
184.408	315.56
184.641	317
184.875	319.52
185.108	322.2
185.342	323.76
185.575	326.4
185.808	328.45
186.042	327.87
186.275	328
186.509	329.43
186.742	330.27
186.976	332.07
187.209	332.58
187.442	332.62
187.676	333.31
187.909	333.83
188.142	334.11
188.376	335.29
188.609	336.63
188.842	338.47
189.076	339.6
189.309	341.14
189.542	342.02
189.775	344.65
190.009	347.54
190.242	349.91
190.475	353.18
190.708	355.96
190.941	358.65
191.174	360.34
191.408	362.09
191.641	364.2
191.874	366.62
192.107	369.14
192.34	370.94
192.573	372.25
192.806	373.32
193.039	374.67
193.272	376.87
193.505	378.11
193.738	380.12
193.971	382.47
194.204	384.12
194.437	385.09
194.67	386.25
194.903	386.74
195.136	388.38
195.369	391.02
195.602	393.11
195.835	395.27
196.068	397.31
196.301	399.49
196.533	401.87
196.766	403.78
196.999	406.76
197.232	409.12
197.465	410.83
197.698	412.8
197.93	415.34
198.163	416.07
198.396	418.38
198.629	420.74
198.861	422.43
199.094	424.2
199.327	426.31
199.559	427.63
199.792	429.69
200.025	431.32
200.257	432.45
200.49	433.34
200.723	437.2
200.955	437.76
201.188	439.16
201.42	440.87
201.653	442.34
201.886	445.12
202.118	448.49
202.351	450.74
202.583	454.85
202.816	457.69
203.048	460.38
203.281	462.02
203.513	464.92
203.745	467.47
203.978	470.16
204.21	472.67
204.443	474.82
204.675	476.47
204.907	479.34
205.14	480.63
205.372	483.63
205.605	485.2
205.837	487.74
206.069	489.09
206.302	491.03
206.534	493.38
206.766	495.63
206.998	498.14
207.231	500.65
207.463	502.56
207.695	505.6
207.927	506.94
208.159	509.8
208.392	511.74
208.624	515.25
208.856	517.34
209.088	519.14
209.32	521.29
209.552	523.36
209.784	524.45
210.017	525.6
210.249	527.29
210.481	530.11
210.713	531.42
210.945	532.11
211.177	533.65
211.409	535.71
211.641	538.96
211.873	541.16
212.105	543.49
212.337	546.27
212.569	548.03
212.801	550.27
213.033	551.67
213.264	555.42
213.496	558.67
213.728	560.65
213.96	562.94
214.192	564
214.424	567.65
214.656	568.47
214.887	570.62
215.119	573.31
215.351	575.69
215.583	578.6
215.815	579.12
216.046	580.52
216.278	581.56
216.51	583.56
216.741	584.23
216.973	584.22
217.205	586.54
217.436	587.07
217.668	589.29
217.9	589.54
218.131	589.98
218.363	591.05
218.595	592.42
218.826	594.16
219.058	595.34
219.289	597.45
219.521	598.45
219.752	598.62
219.984	600
220.215	601.07
220.447	602.98
220.678	604.43
220.91	606.14
221.141	606.89
221.373	609.2
221.604	610.2
221.836	612.52
222.067	614.54
222.298	616.34
222.53	617.25
222.761	617.65
222.993	618.29
223.224	619.29
223.455	619.89
223.686	620.56
223.918	620.11
224.149	621.4
224.38	621.23
224.612	620.72
224.843	621.83
225.074	624.02
225.305	625.27
225.536	626.98
225.768	628.49
225.999	629.47
226.23	630.71
226.461	631.83
226.692	632.72
226.923	632.78
227.155	635.11
227.386	635.27
227.617	634.67
227.848	634.91
228.079	636.42
228.31	636.05
228.541	636.62
228.772	636.96
229.003	636.27
229.234	636.25
229.465	636.47
229.696	634.87
229.927	635.23
230.158	636.2
230.389	635.98
230.62	634.4
230.85	634.87
231.081	633.78
231.312	634.11
231.543	635.25
231.774	634.72
232.005	634.89
232.236	636.47
232.466	636.58
232.697	635.05
232.928	635.38
233.159	634.25
233.389	634.83
233.62	635.38
233.851	635.11
234.082	634.43
234.312	635.18
234.543	634.72
234.774	633.38
235.004	633.31
235.235	634.82
235.466	633.36
235.696	634.58
235.927	632.83
236.157	632.63
236.388	631.92
236.618	632.56
236.849	632.49
237.08	633.83
237.31	634.96
237.541	633.85
237.771	632.82
238.002	635
238.232	634.03
238.463	635.8
238.693	636.29
238.923	635.94
239.154	635.07
239.384	633.29
239.615	632.54
239.845	629.58
240.075	630.11
240.306	629.69
240.536	628.09
240.766	628.38
240.997	625.42
241.227	624.45
241.457	624.18
241.687	623.52
241.918	624.36
242.148	625
242.378	625.91
242.608	625.52
242.839	624.98
243.069	623.65
243.299	622.63
243.529	624.43
243.759	623.56
243.989	623.62
244.22	623.16
244.45	621.74
244.68	619.67
244.91	619.22
245.14	618.34
245.37	618.54
245.6	619.91
245.83	619.67
246.06	618.45
246.29	619.27
246.52	619.22
246.75	619.63
246.98	619.56
247.21	619.87
247.44	618.76
247.67	618.69
247.9	617.87
248.13	616.23
248.359	615.47
248.589	614.38
248.819	614.27
249.049	612.8
249.279	611.07
249.509	610.38
249.738	610.14
249.968	609.91
250.198	609.65
250.428	607.83
250.657	607.11
250.887	606.52
251.117	606.62
251.347	604.52
251.576	604.29
251.806	603.92
252.036	603.02
252.265	601.54
252.495	601.58
252.725	599.49
252.954	600.22
253.184	599.56
253.413	599.2
253.643	598.14
253.873	597.89
254.102	597.43
254.332	596.58
254.561	597.34
254.791	596.67
255.02	595.98
255.25	595.63
255.479	595.67
255.708	595.51
255.938	594.31
256.167	594.54
256.397	593.05
256.626	592.11
256.856	591.67
257.085	589.42
257.314	589.32
257.544	588.83
257.773	589.47
258.002	587.83
258.232	587.72
258.461	587.4
258.69	586.2
258.919	586.18
259.149	586.49
259.378	586.52
259.607	585.69
259.836	586
260.065	584.63
260.295	583.43
260.524	583.02
260.753	582.23
260.982	581.54
261.211	579.58
261.44	579.09
261.669	577.6
261.899	576.36
262.128	577.32
262.357	574.45
262.586	574.18
262.815	572.51
263.044	572.94
263.273	575.31
263.502	574.42
263.731	574.12
263.96	573.47
264.189	572.94
264.418	572.45
264.646	570.92
264.875	571.29
265.104	570.02
265.333	569.47
265.562	567.34
265.791	562.67
266.02	562.98
266.249	561.76
266.477	560.82
266.706	559.16
266.935	557.69
267.164	556.98
267.393	554.78
267.621	553.83
267.85	553.38
268.079	553.6
268.307	552.94
268.536	552.29
268.765	552.76
268.993	552.22
269.222	552.51
269.451	553.32
269.679	553.31
269.908	553.65
270.137	553.52
270.365	554.56
270.594	553.89
270.822	554.49
271.051	553.16
271.279	552.6
271.508	552.11
271.736	552.87
271.965	552.45
272.193	552.87
272.422	553.67
272.65	554.22
272.879	552.4
273.107	552.4
273.336	551.4
273.564	551.76
273.792	549.43
274.021	548.6
274.249	547.14
274.477	546.12
274.706	543.8
274.934	541.47
275.162	540.09
275.391	539.62
275.619	538.11
275.847	537.12
276.075	535.31
276.304	535.4
276.532	535.18
276.76	533.4
276.988	531.63
277.216	530.38
277.445	529.89
277.673	528.43
277.901	528.47
278.129	528.47
278.357	527.18
278.585	526.94
278.813	527.07
279.041	526.69
279.269	526.62
279.497	526.63
279.725	527.25
279.954	528.42
280.182	528.8
280.41	527.43
280.637	525.4
280.865	525.89
281.093	525.89
281.321	525.94
281.549	524.69
281.777	524.49
282.005	524.51
282.233	523.16
282.461	520.8
282.689	519.52
282.916	519.6
283.144	520.05
283.372	520.29
283.6	518.96
283.828	517.82
284.055	517.51
284.283	516.65
284.511	516.09
284.739	516.49
284.966	516.27
285.194	516.29
285.422	515.29
285.649	514.05
285.877	511.8
286.105	511.65
286.332	510.85
286.56	510.89
286.788	510.42
287.015	509.22
287.243	507.71
287.47	506.89
287.698	506.74
287.925	507.29
288.153	505.45
288.381	506.11
288.608	505.22
288.836	505.43
289.063	504.83
289.29	503.6
289.518	503.58
289.745	503.02
289.973	503.63
290.2	502.91
290.428	501.05
290.655	502.02
290.882	500.45
291.11	499.56
291.337	498.83
291.564	498.05
291.792	497.8
292.019	497.32
292.246	497.34
292.473	495.76
292.701	495.42
292.928	494.47
293.155	493.16
293.382	492.92
293.61	493.23
293.837	492.54
294.064	491.05
294.291	491.23
294.518	489.72
294.745	489.49
294.972	489.6
295.2	487.52
295.427	488.18
295.654	488.87
295.881	489.11
296.108	487.43
296.335	486.22
296.562	487.34
296.789	487.12
297.016	487.98
297.243	486.49
297.47	484.96
297.697	485.76
297.924	484.71
298.151	482.83
298.378	482.36
298.604	482.47
298.831	482.31
299.058	479.72
299.285	479.91
299.512	479.43
299.739	479.2
299.966	479.18
300.192	478.02
300.419	477.67
300.646	477
300.873	475.51
301.099	475.78
301.326	476.07
301.553	477.12
301.78	477.02
302.006	475.65
302.233	475.36
302.46	475.8
302.686	474.83
302.913	473.43
303.14	474.22
303.366	474.38
303.593	474
303.819	473.47
304.046	472.23
304.272	469.45
304.499	469.11
304.725	468.67
304.952	466.6
305.179	467.4
305.405	468.98
305.631	468.54
305.858	467.54
306.084	466.62
306.311	465.67
306.537	465.96
306.764	467.54
306.99	467.94
307.216	467.12
307.443	467.56
307.669	466.51
307.895	465.71
308.122	465.05
308.348	465
308.574	464.05
308.801	464.34
309.027	464.8
309.253	463.52
309.479	461.92
309.706	463.05
309.932	463.05
310.158	463.51
310.384	462.71
310.61	463.45
310.837	462.82
311.063	464.22
311.289	463.45
311.515	462.34
311.741	462.03
311.967	462.58
312.193	463.07
312.419	463.34
312.645	463.78
312.871	462.56
313.097	461.42
313.323	462.2
313.549	461.56
313.775	461.76
314.001	461.83
314.227	461.62
314.453	461.76
314.679	460.49
314.905	459.87
315.131	460.16
315.357	461.74
315.583	462.91
315.809	462.8
316.034	462.94
316.26	463.56
316.486	464.96
316.712	465.63
316.938	466.31
317.163	466.69
317.389	468.03
317.615	467.91
317.841	468.69
318.066	467.91
318.292	469.09
318.518	469.82
318.743	469.94
318.969	469.87
319.195	471.67
319.42	472.25
319.646	473.85
319.872	472.76
320.097	474.31
320.323	474.96
320.548	477.09
320.774	478.14
320.999	479.36
321.225	481.25
321.45	482.22
321.676	482.96
321.901	483.67
322.127	485.22
322.352	487.96
322.578	489.12
322.803	490.87
323.029	492.18
323.254	493.27
323.479	494.76
323.705	497.38
323.93	498.8
324.155	499.83
324.381	501.72
324.606	502.36
324.831	505
325.057	506.31
325.282	507.71
325.507	509.02
325.732	511.63
325.958	513.85
326.183	514.85
326.408	517.94
326.633	521.82
326.858	523.98
327.084	527.07
327.309	528.82
327.534	532.78
327.759	536.82
327.984	540.02
328.209	543.56
328.434	546.65
328.659	549.47
328.884	553.78
329.109	555.47
329.334	560.23
329.559	564.25
329.784	568.16
330.009	570.96
330.234	573.52
330.459	577.92
330.684	581.25
330.909	584.89
331.134	588.6
331.359	589.85
331.584	594.32
331.809	596.87
332.034	600.31
332.259	604.76
332.483	609.07
332.708	612.6
332.933	616.76
333.158	619.67
333.383	624.07
333.607	628.67
333.832	634.16
334.057	639.51
334.282	646.2
334.506	652.12
334.731	657
334.956	662.27
335.18	668.71
335.405	675.12
335.63	682.4
335.854	688.62
336.079	695.56
336.303	701.51
336.528	707.69
336.753	712.02
336.977	718.27
337.202	724.83
337.426	731.47
337.651	737.43
337.875	743.02
338.1	749.11
338.324	755.47
338.549	761.83
338.773	768.89
338.997	775.23
339.222	782.98
339.446	789.52
339.671	797.54
339.895	803.65
340.119	812.51
340.344	820.2
340.568	827.47
340.792	834.72
341.017	840.63
341.241	848.96
341.465	858.05
341.689	866.72
341.914	874.94
342.138	881.4
342.362	890.67
342.586	899.16
342.811	907.45
343.035	917.62
343.259	925.67
343.483	937.22
343.707	945.74
343.931	953.72
344.155	961.03
344.38	970.05
344.604	981.02
344.828	989.96
345.052	999.74
345.276	1008.76
345.5	1016.16
345.724	1026.14
345.948	1034.8
346.172	1044.29
346.396	1052.62
346.62	1065.71
346.844	1077.42
347.068	1087.76
347.292	1099.27
347.515	1107.56
347.739	1120.51
347.963	1132.23
348.187	1142.82
348.411	1152.4
348.635	1163.65
348.859	1175.45
349.082	1183.27
349.306	1192.45
349.53	1202.31
349.754	1211.8
349.977	1223
350.201	1232.96
350.425	1245.02
350.649	1256.82
350.872	1269.38
351.096	1280.92
351.32	1292.71
351.543	1304.38
351.767	1318.16
351.99	1330.07
352.214	1341.36
352.438	1350.05
352.661	1360.09
352.885	1369.98
353.108	1380.42
353.332	1391.94
353.555	1401.67
353.779	1412.51
354.002	1424.69
354.226	1433.74
354.449	1445.23
354.673	1458.34
354.896	1474.63
355.12	1486.34
355.343	1499.62
355.566	1512.96
355.79	1524.03
356.013	1538.47
356.237	1551.94
356.46	1566.03
356.683	1579.54
356.907	1591.11
357.13	1604.29
357.353	1615.92
357.576	1628.58
357.8	1639.22
358.023	1651.36
358.246	1664.65
358.469	1678.09
358.693	1690.71
358.916	1703.18
359.139	1714.51
359.362	1728.52
359.585	1738.72
359.808	1751.2
360.031	1764.25
360.255	1778.43
360.478	1792.25
360.701	1806.22
360.924	1817.89
361.147	1831.36
361.37	1843.38
361.593	1857.43
361.816	1870.92
362.039	1886.03
362.262	1899.96
362.485	1913.78
362.708	1930.09
362.931	1943.25
363.154	1958.22
363.377	1971.82
363.599	1986.54
363.822	2000.8
364.045	2015.67
364.268	2029.89
364.491	2044.83
364.714	2056.96
364.936	2071.8
365.159	2084.23
365.382	2098.22
365.605	2110.92
365.828	2131.25
366.05	2146.14
366.273	2161.22
366.496	2175.4
366.718	2192.03
366.941	2208.96
367.164	2228.76
367.386	2244.96
367.609	2259.4
367.832	2277.78
368.054	2294.8
368.277	2307.25
368.5	2323
368.722	2340.03
368.945	2357.87
369.167	2372.05
369.39	2385.83
369.612	2401.63
369.835	2418.51
370.057	2436.43
370.28	2453.02
370.502	2471.2
370.725	2486.71
370.947	2502.14
371.169	2518.87
371.392	2536.27
371.614	2552.65
371.837	2569.63
372.059	2586.07
372.281	2602.4
372.504	2619.2
372.726	2636.14
372.948	2650.52
373.171	2666.34
373.393	2685
373.615	2702.71
373.837	2719.91
374.06	2739.2
374.282	2758.91
374.504	2775.54
374.726	2796.76
374.948	2816.18
375.17	2834.82
375.393	2854.52
375.615	2875.52
375.837	2894.82
376.059	2915.03
376.281	2933.54
376.503	2954.47
376.725	2974.6
376.947	2996.14
377.169	3012.51
377.391	3035.05
377.613	3056.78
377.835	3077.38
378.057	3099.98
378.279	3120.47
378.501	3139.52
378.723	3160.49
378.945	3182.94
379.167	3204.47
379.389	3225.45
379.611	3251.34
379.833	3273.11
380.054	3296.32
380.276	3322.16
380.498	3346.32
380.72	3370.85
380.942	3396.89
381.163	3422.02
381.385	3445.56
381.607	3472.4
381.829	3500.82
382.05	3523.25
382.272	3548.38
382.494	3573.63
382.716	3595.56
382.937	3617.18
383.159	3642.71
383.381	3670
383.602	3697.87
383.824	3724.58
384.045	3747.8
384.267	3773.23
384.488	3801.62
384.71	3828.8
384.932	3853.62
385.153	3883.78
385.375	3914.69
385.596	3945.05
385.818	3970.02
386.039	3996.83
386.261	4024.58
386.482	4054.43
386.703	4078.83
386.925	4105.8
387.146	4134.51
387.368	4162.11
387.589	4190.23
387.81	4215.2
388.032	4241.34
388.253	4274.09
388.474	4302.49
388.696	4332.38
388.917	4359.34
389.138	4391.25
389.359	4422.29
389.581	4450.87
389.802	4482.54
390.023	4513.43
390.244	4543.4
390.465	4570.65
390.687	4601.42
390.908	4633.65
391.129	4665.63
391.35	4696.67
391.571	4731.27
391.792	4761.14
392.013	4795.85
392.234	4826.85
392.455	4859.45
392.677	4892.11
392.898	4929.36
393.119	4957.96
393.34	4993.16
393.561	5024.54
393.782	5061.83
394.003	5090.72
394.223	5125.45
394.444	5157
394.665	5193.47
394.886	5221.94
395.107	5259.36
395.328	5293.12
395.549	5327.18
395.77	5355.69
395.99	5391.14
396.211	5422.27
396.432	5455.82
396.653	5492
396.874	5523.51
397.094	5555.8
397.315	5590.34
397.536	5621.83
397.757	5657.94
397.977	5694.67
398.198	5731.83
398.419	5762.51
398.639	5795.62
398.86	5831.76
399.081	5867.18
399.301	5906.74
399.522	5942.6
399.742	5979.05
399.963	6015.69
400.184	6050.89
400.404	6089.47
400.625	6124.14
400.845	6161.25
401.066	6197.22
401.286	6233.89
401.507	6263.62
401.727	6294.11
401.948	6327.69
402.168	6364.94
402.388	6400.14
402.609	6432.65
402.829	6460.72
403.05	6495.42
403.27	6533.47
403.49	6569.18
403.711	6602.03
403.931	6637.62
404.151	6674.65
404.372	6711.6
404.592	6747.09
404.812	6785.89
405.032	6821.38
405.253	6858.42
405.473	6894.38
405.693	6929.38
405.913	6970.34
406.133	7007.29
406.353	7048.56
406.574	7084.62
406.794	7122.49
407.014	7158
407.234	7191.87
407.454	7228.12
407.674	7264.94
407.894	7304.82
408.114	7338
408.334	7371.91
408.554	7413.11
408.774	7448.12
408.994	7487.31
409.214	7525.98
409.434	7567.65
409.654	7603.83
409.874	7644.96
410.094	7683.67
410.314	7720.05
410.534	7761.16
410.754	7799.71
410.974	7837.29
411.193	7873.49
411.413	7912.78
411.633	7949.12
411.853	7986.52
412.073	8024.67
412.292	8059.72
412.512	8105.34
412.732	8141.71
412.952	8177.38
413.171	8215.52
413.391	8253.49
413.611	8295.83
413.831	8335.94
414.05	8379.74
414.27	8419.09
414.489	8462.8
414.709	8502.32
414.929	8536.22
415.148	8580.49
415.368	8626.51
415.587	8666.22
415.807	8713.67
416.026	8758.25
416.246	8802.76
416.465	8844.03
416.685	8888.54
416.904	8933.16
417.124	8985.82
417.343	9033.23
417.563	9078.63
417.782	9124.05
418.002	9172.14
418.221	9210.16
418.44	9253.63
418.66	9294.52
418.879	9338.09
419.098	9382.72
419.318	9425.94
419.537	9469.02
419.756	9510.22
419.976	9551.54
420.195	9590.32
420.414	9633.96
420.633	9677.82
420.853	9720.03
421.072	9765.29
421.291	9807.38
421.51	9848.83
421.729	9889.92
421.948	9925.69
422.168	9971.8
422.387	10018.54
422.606	10064.67
422.825	10110.54
423.044	10157.07
423.263	10200.34
423.482	10242.18
423.701	10290.65
423.92	10338.96
424.139	10385.83
424.358	10435.22
424.577	10482.11
424.796	10523.76
425.015	10568.11
425.234	10610.49
425.453	10654.22
425.672	10698.83
425.891	10749.47
426.11	10792.83
426.328	10837.8
426.547	10881.49
426.766	10922.91
426.985	10966.83
427.204	11014.25
427.422	11062.56
427.641	11110.09
427.86	11157.8
428.079	11204.98
428.297	11247.63
428.516	11294.71
428.735	11339.56
428.954	11389.25
429.172	11440.82
429.391	11485.2
429.61	11535.07
429.828	11582.16
430.047	11629.45
430.265	11677.03
430.484	11725.71
430.703	11774
430.921	11819.18
431.14	11866.65
431.358	11913.23
431.577	11962.18
431.795	12017.4
432.014	12064.16
432.232	12112.63
432.451	12163.16
432.669	12210.03
432.887	12261.03
433.106	12310.34
433.324	12357.96
433.543	12403.96
433.761	12452.87
433.979	12496.87
434.198	12545.34
434.416	12593.27
434.634	12644.43
434.853	12689.51
435.071	12737.8
435.289	12775.94
435.507	12816.85
435.726	12860.51
435.944	12904.8
436.162	12950.14
436.38	13000.32
436.598	13039.31
436.817	13084.91
437.035	13121.83
437.253	13170.09
437.471	13218.4
437.689	13269.83
437.907	13323.43
438.125	13378.25
438.343	13430.94
438.561	13474.43
438.78	13525.31
438.998	13573.92
439.216	13622.52
439.434	13668.47
439.652	13718.65
439.869	13767.23
440.087	13818.45
440.305	13859.74
440.523	13904.58
440.741	13949.8
440.959	14003.56
441.177	14047.67
441.395	14097.74
441.613	14147.78
441.831	14197.25
442.048	14239.51
442.266	14281.49
442.484	14332.11
442.702	14383.42
442.919	14432.85
443.137	14486.02
443.355	14532.16
443.573	14580.63
443.79	14634.58
444.008	14678.82
444.226	14733.69
444.443	14785.91
444.661	14839.72
444.879	14887.91
445.096	14938.03
445.314	14989.09
445.532	15038.16
445.749	15092.02
445.967	15138.65
446.184	15178.76
446.402	15227.51
446.619	15274.32
446.837	15319.69
447.054	15365.76
447.272	15411.03
447.489	15456.11
447.707	15496.92
447.924	15543.69
448.141	15592.05
448.359	15641.8
448.576	15695
448.794	15746.11
449.011	15796.51
449.228	15847.65
449.446	15894.87
449.663	15942.98
449.88	15991.74
450.098	16042.11
450.315	16088.85
450.532	16135.8
450.749	16181.51
450.967	16229.92
451.184	16281.98
451.401	16328.25
451.618	16374.91
451.835	16428.02
452.052	16473.05
452.27	16525.51
452.487	16574.23
452.704	16620.49
452.921	16662.98
453.138	16716.92
453.355	16767.14
453.572	16809.43
453.789	16859.18
454.006	16909.12
454.223	16953.22
454.44	17007
454.657	17054.45
454.874	17104.56
455.091	17150.18
455.308	17196.02
455.525	17237.38
455.742	17283.96
455.959	17333.87
456.176	17389.58
456.393	17432.31
456.609	17476.45
456.826	17520.07
457.043	17570.38
457.26	17618.12
457.477	17673.8
457.693	17717.65
457.91	17764.58
458.127	17802.94
458.344	17843.42
458.56	17878.16
458.777	17921.22
458.994	17965.87
459.21	18007.94
459.427	18036.89
459.644	18064.12
459.86	18090.69
460.077	18137.05
460.294	18176.71
460.51	18218.22
460.727	18260.16
460.943	18300.11
461.16	18338.94
461.376	18376.85
461.593	18410.34
461.809	18447.4
462.026	18495.74
462.242	18534.16
462.459	18573.56
462.675	18609.72
462.892	18645.29
463.108	18682.25
463.324	18720.36
463.541	18763.98
463.757	18801.62
463.974	18846.32
464.19	18894.92
464.406	18936.32
464.623	18988.22
464.839	19027.58
465.055	19072.6
465.271	19121.98
465.488	19162.29
465.704	19208.27
465.92	19255.58
466.136	19307.83
466.353	19354.34
466.569	19404.51
466.785	19459.87
467.001	19511.07
467.217	19568
467.433	19630.74
467.649	19685.07
467.865	19743.23
468.082	19809.82
468.298	19873.82
468.514	19934.74
468.73	20007.6
468.946	20076.87
469.162	20138.69
469.378	20197.58
469.594	20263.36
469.81	20319.18
470.026	20390.4
470.242	20457
470.457	20518.03
470.673	20580.98
470.889	20647.18
471.105	20701.34
471.321	20766.29
471.537	20832.67
471.753	20908.67
471.968	20977.51
472.184	21048.52
472.4	21114.27
472.616	21190.16
472.832	21260.12
473.047	21337.89
473.263	21412.25
473.479	21493.23
473.694	21568.34
473.91	21638.47
474.126	21714.47
474.341	21790.82
474.557	21867.89
474.773	21938.38
474.988	22006.29
475.204	22083.09
475.42	22149.58
475.635	22229.71
475.851	22301.25
476.066	22362.36
476.282	22441.87
476.497	22505.85
476.713	22571.72
476.928	22642.98
477.144	22712.71
477.359	22783.42
477.575	22851.03
477.79	22915.71
478.005	22973.51
478.221	23033.45
478.436	23099.69
478.651	23159.82
478.867	23225.36
479.082	23295.87
479.297	23342.74
479.513	23399.34
479.728	23451.25
479.943	23490.23
480.159	23538.91
480.374	23585.52
480.589	23639.36
480.804	23692.67
481.019	23741.31
481.235	23789.43
481.45	23831.58
481.665	23883.22
481.88	23938.27
482.095	23997.83
482.31	24056.07
482.525	24108.69
482.741	24167.12
482.956	24218.36
483.171	24271.11
483.386	24322.54
483.601	24355.51
483.816	24401.98
484.031	24452.6
484.246	24492.76
484.461	24531.14
484.676	24580.91
484.891	24628.49
485.105	24666.8
485.32	24704.29
485.535	24741.94
485.75	24781.94
485.965	24832.62
486.18	24869.8
486.395	24909.74
486.609	24950.85
486.824	24992.58
487.039	25031.51
487.254	25071.11
487.469	25115.74
487.683	25162.14
487.898	25201.09
488.113	25241.45
488.327	25286.54
488.542	25328.51
488.757	25365.11
488.972	25404.16
489.186	25446.67
489.401	25485.83
489.615	25521.52
489.83	25541.89
490.045	25574.22
490.259	25607.71
490.474	25639.34
490.688	25672.14
490.903	25701.05
491.117	25740.34
491.332	25771.98
491.546	25800.25
491.761	25826.4
491.975	25859.58
492.19	25905.22
492.404	25939.52
492.618	25970.8
492.833	26004
493.047	26034.72
493.262	26061.29
493.476	26092.34
493.69	26117.85
493.905	26137.09
494.119	26158.43
494.333	26185.67
494.547	26211.4
494.762	26238.91
494.976	26265.83
495.19	26295.63
495.404	26315.92
495.619	26351.31
495.833	26368.29
496.047	26388.69
496.261	26417.34
496.475	26442.03
496.689	26453.8
496.903	26455.8
497.117	26459.03
497.332	26463
497.546	26448.25
497.76	26440.54
497.974	26426.34
498.188	26419.65
498.402	26415.38
498.616	26406.52
498.83	26394
499.044	26383.89
499.258	26379.23
499.472	26384.14
499.685	26386.02
499.899	26397.87
500.113	26412.02
500.327	26427.22
500.541	26447.23
500.755	26463.16
500.969	26482.27
501.183	26505.54
501.396	26528.36
501.61	26550.6
501.824	26568.51
502.038	26587.78
502.251	26596.6
502.465	26617.02
502.679	26627
502.892	26633.49
503.106	26647.51
503.32	26653.09
503.533	26669.03
503.747	26687.22
503.961	26722.83
504.174	26746.45
504.388	26767.22
504.602	26803.38
504.815	26842.98
505.029	26884.34
505.242	26933.85
505.456	26982.05
505.669	27038.91
505.883	27093.22
506.096	27138.34
506.31	27172.11
506.523	27217.91
506.736	27267.11
506.95	27323.18
507.163	27367.98
507.377	27428.52
507.59	27481.07
507.803	27539.25
508.017	27596.52
508.23	27659.92
508.443	27728.14
508.657	27801.83
508.87	27871.03
509.083	27941.11
509.296	28018.29
509.51	28101.45
509.723	28172.43
509.936	28252.49
510.149	28330.54
510.363	28418.8
510.576	28504.2
510.789	28594.71
511.002	28695.78
511.215	28790.07
511.428	28891.87
511.641	28991.02
511.854	29080.45
512.067	29195.72
512.28	29299.96
512.493	29410.56
512.707	29512.78
512.92	29616.11
513.132	29723.58
513.345	29822.51
513.558	29928.87
513.771	30048.43
513.984	30153.07
514.197	30267.25
514.41	30364.25
514.623	30475.85
514.836	30579.96
515.049	30696.43
515.262	30795.82
515.474	30894.42
515.687	30987.49
515.9	31087.45
516.113	31180.47
516.325	31281.94
516.538	31375.25
516.751	31468.92
516.964	31558.43
517.176	31654.82
517.389	31741.89
517.602	31826.63
517.814	31919.56
518.027	32016.51
518.24	32092.12
518.452	32175.42
518.665	32250.34
518.877	32328.98
519.09	32409.25
519.303	32481.18
519.515	32547.78
519.728	32607.74
519.94	32681.78
520.153	32751.18
520.365	32810.91
520.578	32885.05
520.79	32946.12
521.002	33003.51
521.215	33072.67
521.427	33130.72
521.64	33190.45
521.852	33241.18
522.064	33291.52
522.277	33345.36
522.489	33396.96
522.701	33444.47
522.914	33498.65
523.126	33550.27
523.338	33605.92
523.551	33647.42
523.763	33692.32
523.975	33747.27
524.187	33796.92
524.399	33854.91
524.612	33903.62
524.824	33945.96
525.036	34004.05
525.248	34048.16
525.46	34097.89
525.672	34146.36
525.884	34190.62
526.096	34224.07
526.308	34248.85
526.521	34290.98
526.733	34323.98
526.945	34357.47
527.157	34390.58
527.369	34420.85
527.581	34442.51
527.793	34462.09
528.004	34486.6
528.216	34506
528.428	34544.89
528.64	34579.05
528.852	34613.62
529.064	34640.83
529.276	34663.8
529.488	34685.32
529.699	34700.8
529.911	34729.91
530.123	34761.42
530.335	34787.09
530.547	34825.98
530.758	34860.65
530.97	34894.8
531.182	34921.82
531.393	34958.45
531.605	34999.51
531.817	35045.92
532.029	35087.29
532.24	35135.78
532.452	35160.82
532.663	35200.36
532.875	35222.4
533.087	35244.91
533.298	35254.16
533.51	35266.43
533.721	35287.32
533.933	35298.72
534.144	35313.78
534.356	35320.51
534.567	35324.89
534.779	35348.16
534.99	35357.47
535.202	35376.45
535.413	35398.71
535.624	35431.62
535.836	35457.56
536.047	35470.2
536.259	35491.07
536.47	35495.96
536.681	35516.45
536.893	35531.91
537.104	35547.71
537.315	35565.58
537.526	35585.92
537.738	35593.74
537.949	35608.36
538.16	35628.76
538.371	35650.8
538.582	35667.49
538.794	35693.54
539.005	35709.51
539.216	35736.38
539.427	35755.63
539.638	35771.51
539.849	35780.67
540.06	35790.51
540.272	35806.51
540.483	35819.69
540.694	35840.82
540.905	35857.6
541.116	35873.92
541.327	35897.54
541.538	35904.56
541.749	35917.11
541.96	35930.54
542.17	35942.45
542.381	35962.65
542.592	35963.87
542.803	35976.91
543.014	35982.27
543.225	35988.85
543.436	35990.82
543.647	35986.69
543.857	35999.47
544.068	36009.38
544.279	36018.58
544.49	36029.87
544.701	36034.36
544.911	36046.94
545.122	36056.65
545.333	36054.87
545.543	36062.03
545.754	36078.38
545.965	36097.63
546.175	36107.31
546.386	36114.74
546.597	36121.14
546.807	36139.47
547.018	36150.8
547.229	36170.18
547.439	36165.87
547.65	36179.63
547.86	36186.65
548.071	36193.11
548.281	36199.49
548.492	36198.56
548.702	36211.82
548.913	36218.43
549.123	36214.94
549.333	36221.67
549.544	36215.54
549.754	36225.87
549.965	36236.45
550.175	36256.38
550.385	36268.18
550.596	36290.43
550.806	36311.43
551.016	36315.63
551.227	36323.18
551.437	36337.22
551.647	36355.76
551.857	36377.72
552.068	36397.72
552.278	36404.85
552.488	36415.02
552.698	36425.89
552.908	36427.43
553.119	36431.47
553.329	36429.02
553.539	36436.42
553.749	36441.87
553.959	36439.47
554.169	36429.89
554.379	36427.89
554.589	36427.16
554.799	36421.52
555.009	36421.45
555.219	36422.76
555.429	36423.22
555.639	36431.34
555.849	36437.22
556.059	36434
556.269	36432.65
556.479	36440.03
556.689	36447.94
556.899	36462.05
557.109	36475.36
557.319	36476.32
557.528	36483.45
557.738	36482.29
557.948	36476.4
558.158	36478.49
558.368	36471.18
558.577	36472.8
558.787	36466.27
558.997	36454.52
559.207	36446.62
559.416	36431.83
559.626	36419.96
559.836	36394.78
560.045	36383.36
560.255	36396.92
560.465	36387.8
560.674	36399.56
560.884	36390.89
561.093	36387.16
561.303	36382.91
561.512	36369.45
561.722	36368.72
561.932	36365.85
562.141	36366
562.351	36359.47
562.56	36358.07
562.769	36360.85
562.979	36355.65
563.188	36359.87
563.398	36369.23
563.607	36384.83
563.817	36393.07
564.026	36396.89
564.235	36398.69
564.445	36399
564.654	36410.16
564.863	36393.36
565.073	36385.42
565.282	36378.56
565.491	36376.6
565.7	36369.31
565.91	36348.63
566.119	36337.38
566.328	36319.67
566.537	36311.25
566.746	36307.94
566.956	36297.03
567.165	36290.42
567.374	36288.23
567.583	36278.58
567.792	36261.47
568.001	36237.65
568.21	36222.4
568.419	36200.47
568.628	36186.54
568.837	36163.11
569.046	36143.05
569.255	36120.23
569.464	36097.31
569.673	36062.14
569.882	36036.23
570.091	36012.02
570.3	36002.91
570.509	35989.56
570.718	35981.82
570.927	35972.82
571.135	35962.94
571.344	35955.63
571.553	35947.05
571.762	35951.29
571.971	35957.03
572.18	35957.85
572.388	35960.09
572.597	35946.05
572.806	35934
573.014	35908.52
573.223	35882
573.432	35863.07
573.641	35837.12
573.849	35813.78
574.058	35781.65
574.266	35749.18
574.475	35721.12
574.684	35702.49
574.892	35696.32
575.101	35680.67
575.309	35678.47
575.518	35673.74
575.726	35672.2
575.935	35662.54
576.143	35647.51
576.352	35639.98
576.56	35627.98
576.769	35624.22
576.977	35605.54
577.186	35575.96
577.394	35552.98
577.602	35531.05
577.811	35508.03
578.019	35486.92
578.228	35471.94
578.436	35459.27
578.644	35438.4
578.852	35417.56
579.061	35391.03
579.269	35371.42
579.477	35362.16
579.685	35340.4
579.894	35334.05
580.102	35315.83
580.31	35296.83
580.518	35278.49
580.726	35262.82
580.935	35247.32
581.143	35229.27
581.351	35214.6
581.559	35195.69
581.767	35169.12
581.975	35151.25
582.183	35124.02
582.391	35112.29
582.599	35091.82
582.807	35073.22
583.015	35057.31
583.223	35035.56
583.431	35025.25
583.639	35006.65
583.847	34979.49
584.055	34960.34
584.263	34942
584.471	34924.29
584.678	34894.31
584.886	34886.49
585.094	34869.45
585.302	34847.03
585.51	34821.6
585.718	34800.31
585.925	34778.67
586.133	34762.32
586.341	34746.49
586.549	34734.47
586.756	34709.8
586.964	34693.27
587.172	34656
587.379	34627.02
587.587	34600.2
587.795	34581.69
588.002	34555.03
588.21	34535.31
588.417	34500.45
588.625	34470.67
588.833	34440.43
589.04	34417.87
589.248	34393.27
589.455	34377.89
589.663	34354.83
589.87	34338.29
590.078	34311.76
590.285	34291.38
590.492	34261.45
590.7	34250.31
590.907	34227.67
591.115	34205.51
591.322	34183.14
591.529	34153.02
591.737	34123.45
591.944	34106.96
592.151	34071.4
592.359	34045.52
592.566	34007.63
592.773	33980.74
592.981	33955.11
593.188	33923.22
593.395	33902.8
593.602	33875.02
593.809	33861.02
594.017	33833.42
594.224	33801.07
594.431	33781.96
594.638	33747.82
594.845	33727.22
595.052	33696.02
595.259	33671.98
595.466	33660.74
595.673	33628.83
595.88	33615.62
596.088	33588.87
596.295	33567.89
596.502	33546.54
596.709	33515.11
596.915	33505.47
597.122	33484.34
597.329	33468.4
597.536	33447
597.743	33420.11
597.95	33403.85
598.157	33369
598.364	33328.11
598.571	33286.27
598.777	33242.54
598.984	33203.14
599.191	33152.22
599.398	33102.63
599.605	33052.92
599.811	32996.27
600.018	32937.16
600.225	32871.92
600.431	32810.32
600.638	32786.69
600.845	32755.85
601.052	32725.85
601.258	32696.25
601.465	32654.87
601.671	32608.67
601.878	32544.09
602.085	32468.62
602.291	32370.51
602.498	32260.74
602.704	32139.92
602.911	31967.6
603.117	31781.52
603.324	31576.4
603.53	31351.56
603.737	31126.56
603.943	30887.36
604.15	30644.52
604.356	30395.98
604.562	30150.12
604.769	29890.52
604.975	29623.52
605.181	29360.03
605.388	29101.47
605.594	28835.65
605.8	28572.78
606.007	28302.51
606.213	28030.71
606.419	27765.91
606.625	27490.63
606.832	27223.54
607.038	26959.76
607.244	26690.74
607.45	26425.69
607.656	26153.63
607.863	25877.74
608.069	25597.63
608.275	25320.52
608.481	25039.58
608.687	24749.11
608.893	24473.25
609.099	24185.45
609.305	23901.38
609.511	23614.98
609.717	23319.63
609.923	23020.83
610.129	22737
610.335	22443
610.541	22144.03
610.747	21847.22
610.953	21551.14
611.159	21237.94
611.365	20921.87
611.571	20596.83
611.776	20271.65
611.982	19951.31
612.188	19632.58
612.394	19304.2
612.6	18979.4
612.806	18650.94
613.011	18323.42
613.217	17991.27
613.423	17669.8
613.628	17353.82
613.834	17042.56
614.04	16733.82
614.246	16428
614.451	16131.92
614.657	15838.22
614.862	15553.16
615.068	15272.96
615.274	14989.52
615.479	14720.72
615.685	14446.71
615.89	14185.74
616.096	13924.34
616.301	13667.14
616.507	13405.94
616.712	13143.11
616.918	12875.49
617.123	12603.49
617.329	12332.18
617.534	12061.69
617.74	11780.16
617.945	11507.05
618.15	11204.98
618.356	10740.85
618.561	9879.12
618.766	8839.23
618.972	7761.6
619.177	6713.89
619.382	5695.11
619.588	4700.45
619.793	4109.73
619.998	3419.21
620.203	2585.66
620.408	1580.89
620.614	587
