Data from test1_MAYP1115451__66__10-14-59-760.txt Node

Date: Wed Jun 12 10:14:59 MDT 2024
User: Modes Lab
Spectrometer: MAYP111545
Trigger mode: 0
Integration Time (sec): 8.000000E-3
Scans to average: 5
Electric dark correction enabled: true
Nonlinearity correction enabled: false
Boxcar width: 5
XAxis mode: Wavelengths
Number of Pixels in Spectrum: 2068
>>>>>Begin Spectral Data<<<<<
165.214	163.33
165.449	163.99
165.683	172.53
165.918	181.23
166.152	188.1
166.387	193.37
166.621	125.48
166.856	163.65
167.09	182.3
167.325	206.17
167.559	222.19
167.794	236.41
168.028	243.55
168.263	245.12
168.497	245.05
168.732	245.15
168.966	246.08
169.2	247.59
169.435	250.5
169.669	251.68
169.903	253.66
170.138	256.17
170.372	257.85
170.606	259.3
170.841	260.15
171.075	261.41
171.309	263.17
171.544	264.75
171.778	266.05
172.012	267.28
172.246	270.08
172.48	270.72
172.715	272.23
172.949	273.88
173.183	276.65
173.417	278.05
173.651	279.55
173.885	281.15
174.119	281.55
174.354	282.32
174.588	282.54
174.822	281.81
175.056	282.05
175.29	281.5
175.524	280.81
175.758	279.75
175.992	280.65
176.226	280.9
176.46	281.21
176.694	281.5
176.928	283.06
177.162	283.19
177.396	283.65
177.63	285.19
177.864	286.05
178.097	287.35
178.331	288.1
178.565	289.83
178.799	290.21
179.033	290.52
179.267	291.43
179.5	291.63
179.734	292.15
179.968	293.77
180.202	294.21
180.436	295.28
180.669	296.68
180.903	298.92
181.137	299.9
181.371	301.63
181.604	302.28
181.838	302.72
182.072	303.43
182.305	304.86
182.539	304.23
182.772	305.12
183.006	306.68
183.24	307.21
183.473	310.17
183.707	310.9
183.94	312.57
184.174	313.86
184.408	316.17
184.641	317.55
184.875	318.85
185.108	321.39
185.342	322.45
185.575	322.52
185.808	324.28
186.042	322.92
186.275	324.23
186.509	324.68
186.742	326.65
186.976	328.34
187.209	330.43
187.442	332.46
187.676	334.32
187.909	335.68
188.142	337.74
188.376	338.52
188.609	339.34
188.842	340.41
189.076	342.52
189.309	343.37
189.542	345.1
189.775	346.65
190.009	347.59
190.242	349.34
190.475	350.68
190.708	352.83
190.941	354.85
191.174	356.52
191.408	357.92
191.641	358.59
191.874	361.97
192.107	362.65
192.34	364.15
192.573	366.95
192.806	368.15
193.039	369.74
193.272	371.12
193.505	372.08
193.738	374.01
193.971	377.06
194.204	380.28
194.437	380.86
194.67	383.39
194.903	384.21
195.136	385.43
195.369	387.86
195.602	391.03
195.835	393.75
196.068	396.75
196.301	400.14
196.533	400.61
196.766	401.21
196.999	402.59
197.232	403.95
197.465	406.86
197.698	408.66
197.93	410.97
198.163	412.54
198.396	414.32
198.629	416.14
198.861	417.26
199.094	418.32
199.327	421.66
199.559	423.55
199.792	426.25
200.025	427.57
200.257	429.79
200.49	430.59
200.723	432.55
200.955	435.32
201.188	438.34
201.42	440.61
201.653	444.41
201.886	446.05
202.118	449.59
202.351	452.1
202.583	455.25
202.816	457.15
203.048	460.32
203.281	462.57
203.513	463.83
203.745	465.05
203.978	467.7
204.21	471.14
204.443	473.52
204.675	475.08
204.907	476.88
205.14	479.19
205.372	481.39
205.605	483.88
205.837	485.79
206.069	489.21
206.302	492.72
206.534	493.17
206.766	494.72
206.998	496.83
207.231	498.21
207.463	499.88
207.695	502.5
207.927	505.37
208.159	506.45
208.392	509.48
208.624	511.54
208.856	512.79
209.088	517.66
209.32	519.34
209.552	521.86
209.784	524.35
210.017	527.08
210.249	526.94
210.481	528.01
210.713	531.17
210.945	533.32
211.177	535.15
211.409	536.52
211.641	537.26
211.873	539.88
212.105	541.1
212.337	543.75
212.569	545.14
212.801	548.65
213.033	551.35
213.264	553.86
213.496	555.99
213.728	557.21
213.96	560.35
214.192	562.15
214.424	562.63
214.656	564.94
214.887	566.5
215.119	568.05
215.351	569.3
215.583	571.46
215.815	572.48
216.046	573.43
216.278	575.1
216.51	576.63
216.741	578.72
216.973	581.57
217.205	583.1
217.436	585.3
217.668	589.08
217.9	591.35
218.131	592.1
218.363	594.08
218.595	595.83
218.826	597.21
219.058	599.85
219.289	601.55
219.521	602.48
219.752	604.3
219.984	604.83
220.215	604.45
220.447	605.75
220.678	607.19
220.91	608.85
221.141	611.1
221.373	613.03
221.604	611.28
221.836	611.39
222.067	612.75
222.298	614.52
222.53	615.83
222.761	617.1
222.993	617.7
223.224	619.5
223.455	619.88
223.686	619.23
223.918	619.37
224.149	622.12
224.38	623.9
224.612	623.97
224.843	624.57
225.074	625.85
225.305	626.39
225.536	627.25
225.768	627.74
225.999	627.61
226.23	628.3
226.461	630.23
226.692	630.08
226.923	629.74
227.155	632.86
227.386	632.34
227.617	632.68
227.848	634.28
228.079	635.25
228.31	635.94
228.541	636.55
228.772	637.46
229.003	636.74
229.234	638.28
229.465	638.99
229.696	636.75
229.927	636.66
230.158	635.5
230.389	633.92
230.62	633.23
230.85	633.15
231.081	632.75
231.312	632.59
231.543	633.46
231.774	632.1
232.005	632.72
232.236	633.17
232.466	633.57
232.697	635.41
232.928	636.63
233.159	636.81
233.389	635.65
233.62	636.52
233.851	637.21
234.082	636.26
234.312	637.46
234.543	635.72
234.774	635.79
235.004	636.14
235.235	635.57
235.466	634.66
235.696	635.41
235.927	636.3
236.157	635.21
236.388	635.59
236.618	635.72
236.849	634.05
237.08	634.08
237.31	633.74
237.541	633.37
237.771	632.63
238.002	632.65
238.232	631.01
238.463	631.15
238.693	632.55
238.923	630.77
239.154	630.88
239.384	631.32
239.615	631.55
239.845	630.1
240.075	629.75
240.306	629.72
240.536	629.97
240.766	630.7
240.997	629.25
241.227	628.17
241.457	627.94
241.687	626.34
241.918	626.57
242.148	626.08
242.378	627.41
242.608	625.92
242.839	626.41
243.069	625.74
243.299	624.81
243.529	627.52
243.759	627.06
243.989	627.06
244.22	627.61
244.45	625.85
244.68	625.81
244.91	625.19
245.14	625.5
245.37	623.7
245.6	624.06
245.83	623.17
246.06	619.72
246.29	619.21
246.52	618.63
246.75	617.61
246.98	617.3
247.21	616.17
247.44	613.83
247.67	612.72
247.9	612.77
248.13	610.81
248.359	610.61
248.589	609.43
248.819	608.46
249.049	608.66
249.279	608.1
249.509	607.26
249.738	606.72
249.968	606.75
250.198	606.45
250.428	605.5
250.657	605.19
250.887	605.12
251.117	604.66
251.347	604.19
251.576	602.52
251.806	601.41
252.036	600.66
252.265	599.88
252.495	600.23
252.725	600.41
252.954	599.86
253.184	598.9
253.413	597.81
253.643	598.75
253.873	597.43
254.102	596.54
254.332	597.68
254.561	597.79
254.791	596.99
255.02	597.03
255.25	596.03
255.479	595.14
255.708	596.05
255.938	596.3
256.167	594.55
256.397	594.66
256.626	593.32
256.856	591.19
257.085	590.3
257.314	589.61
257.544	587.7
257.773	586.5
258.002	586.3
258.232	583.83
258.461	583.26
258.69	583.57
258.919	582.95
259.149	583.54
259.378	582.32
259.607	581.55
259.836	582.32
260.065	581.7
260.295	581.32
260.524	581.46
260.753	580.97
260.982	580.21
261.211	580.05
261.44	580.01
261.669	578.85
261.899	578.28
262.128	578.75
262.357	577.12
262.586	576.94
262.815	576.17
263.044	573.97
263.273	577.12
263.502	574.83
263.731	572.86
263.96	570.88
264.189	570.48
264.418	569.72
264.646	567.26
264.875	566.86
265.104	565.63
265.333	566.1
265.562	565.74
265.791	561.5
266.02	559.92
266.249	558.01
266.477	557.19
266.706	556.12
266.935	555.54
267.164	555.43
267.393	554.75
267.621	554.1
267.85	552.05
268.079	551.55
268.307	549.55
268.536	549.5
268.765	550.28
268.993	550.32
269.222	550.23
269.451	549.95
269.679	549.85
269.908	549.54
270.137	549.57
270.365	550.37
270.594	550.97
270.822	552.54
271.051	554.46
271.279	553.74
271.508	552.85
271.736	552.75
271.965	553.14
272.193	552.79
272.422	552.35
272.65	552.59
272.879	551.45
273.107	549.85
273.336	549.99
273.564	547.77
273.792	547.97
274.021	548.94
274.249	547.54
274.477	544.92
274.706	543.77
274.934	541.99
275.162	539.97
275.391	539.34
275.619	539.97
275.847	537.72
276.075	536.19
276.304	535.37
276.532	533.06
276.76	533.15
276.988	532.41
277.216	532.48
277.445	532.88
277.673	532.15
277.901	529.74
278.129	527.01
278.357	526.97
278.585	527.3
278.813	525.86
279.041	525.45
279.269	524.43
279.497	525.79
279.725	525.14
279.954	524.06
280.182	524.1
280.41	524.57
280.637	524.79
280.865	524.57
281.093	524.55
281.321	523.5
281.549	523.08
281.777	522.57
282.005	521.12
282.233	520.28
282.461	519.28
282.689	518.54
282.916	517.72
283.144	516.7
283.372	514.41
283.6	513.41
283.828	513.41
284.055	512.34
284.283	511.77
284.511	511.77
284.739	510.25
284.966	510.9
285.194	510.7
285.422	511.63
285.649	511.63
285.877	511.86
286.105	511.52
286.332	511.59
286.56	512.48
286.788	511.25
287.015	509.74
287.243	510.08
287.47	509.32
287.698	507.59
287.925	506.88
288.153	507.01
288.381	506.45
288.608	505.32
288.836	502.74
289.063	501.94
289.29	501.88
289.518	502.39
289.745	501.63
289.973	500.43
290.2	500.35
290.428	498.61
290.655	497.85
290.882	498.48
291.11	497.95
291.337	499.46
291.564	497.74
291.792	497.19
292.019	496.3
292.246	495.92
292.473	495.08
292.701	495.37
292.928	495.72
293.155	495.59
293.382	493.68
293.61	493.7
293.837	491.86
294.064	492.35
294.291	491.35
294.518	490.26
294.745	489.57
294.972	489.85
295.2	488.37
295.427	487.52
295.654	486.86
295.881	487.25
296.108	485.79
296.335	485.23
296.562	484.37
296.789	483.92
297.016	483.06
297.243	481.01
297.47	479.55
297.697	478.74
297.924	478.03
298.151	476.5
298.378	476.37
298.604	476.85
298.831	477.12
299.058	476.41
299.285	476.15
299.512	477.17
299.739	478.28
299.966	479.41
300.192	479.26
300.419	478.79
300.646	478.65
300.873	477.05
301.099	476.7
301.326	476.39
301.553	476.28
301.78	477.23
302.006	475.81
302.233	475.21
302.46	473.72
302.686	473.81
302.913	473.74
303.14	472.34
303.366	471.94
303.593	470.66
303.819	469.97
304.046	468.32
304.272	467.61
304.499	466.75
304.725	467.74
304.952	467.52
305.179	467.59
305.405	468.95
305.631	468.17
305.858	468.7
306.084	468.74
306.311	468.59
306.537	469.55
306.764	468.39
306.99	469.01
307.216	467.95
307.443	466.52
307.669	465.43
307.895	463.77
308.122	464.37
308.348	462.55
308.574	462.23
308.801	462.34
309.027	461.61
309.253	461.39
309.479	460.12
309.706	459.88
309.932	460.41
310.158	459.99
310.384	459.92
310.61	461.06
310.837	461.5
311.063	461.32
311.289	461.79
311.515	462.99
311.741	462.1
311.967	462.97
312.193	462.61
312.419	463.15
312.645	463.34
312.871	461.79
313.097	459.99
313.323	460.25
313.549	460.94
313.775	459.57
314.001	458.45
314.227	459.1
314.453	459.26
314.679	458.83
314.905	458.5
315.131	458.83
315.357	459.28
315.583	459.81
315.809	460.32
316.034	459.97
316.26	461.19
316.486	461.48
316.712	462.32
316.938	461.81
317.163	462.7
317.389	462.63
317.615	462.85
317.841	463.92
318.066	464.43
318.292	465.52
318.518	465.92
318.743	465.46
318.969	467.39
319.195	467.85
319.42	469.1
319.646	469.54
319.872	471.05
320.097	472.03
320.323	472.77
320.548	474.5
320.774	475.37
320.999	478.37
321.225	479.63
321.45	480.65
321.676	482.35
321.901	483.94
322.127	486.63
322.352	487.46
322.578	489.41
322.803	492.35
323.029	493.65
323.254	494.95
323.479	494.75
323.705	495.95
323.93	496.26
324.155	497.21
324.381	498.9
324.606	499.54
324.831	502.19
325.057	504.05
325.282	505.19
325.507	507.9
325.732	509.65
325.958	511.12
326.183	514.3
326.408	517.34
326.633	522.46
326.858	525.39
327.084	528.17
327.309	531.19
327.534	533.94
327.759	536.48
327.984	539.88
328.209	542.08
328.434	546.23
328.659	549.26
328.884	552.66
329.109	553.65
329.334	556.17
329.559	558.45
329.784	561.61
330.009	563.57
330.234	567.68
330.459	570.61
330.684	575.54
330.909	578.85
331.134	582.65
331.359	585.15
331.584	589.32
331.809	593.41
332.034	598.81
332.259	602.48
332.483	607.59
332.708	610.97
332.933	615.23
333.158	618.85
333.383	623.32
333.607	628.37
333.832	634.45
334.057	639.01
334.282	645.15
334.506	650.83
334.731	656.54
334.956	662.32
335.18	667.54
335.405	674.1
335.63	680.48
335.854	686.63
336.079	692.15
336.303	697.59
336.528	703.68
336.753	708.41
336.977	714.68
337.202	720.34
337.426	726.03
337.651	733.26
337.875	738.72
338.1	744.37
338.324	751.55
338.549	759.28
338.773	765.74
338.997	771.74
339.222	779.28
339.446	786.12
339.671	794.1
339.895	802.97
340.119	809.83
340.344	817.06
340.568	825.94
340.792	831.37
341.017	838.08
341.241	847.3
341.465	856.54
341.689	864.26
341.914	872.55
342.138	881.34
342.362	889.99
342.586	897.83
342.811	906.1
343.035	915.19
343.259	925.79
343.483	934.65
343.707	942.23
343.931	953.34
344.155	963.68
344.38	972.57
344.604	981.08
344.828	987.74
345.052	999.1
345.276	1008.75
345.5	1017.9
345.724	1026.9
345.948	1037.17
346.172	1047.54
346.396	1054.99
346.62	1064.54
346.844	1075.01
347.068	1086.01
347.292	1097.37
347.515	1105.85
347.739	1118.5
347.963	1126.46
348.187	1137.97
348.411	1147.99
348.635	1158.45
348.859	1169.12
349.082	1179.72
349.306	1188.26
349.53	1199.43
349.754	1211.54
349.977	1221.08
350.201	1229.85
350.425	1242.83
350.649	1254.52
350.872	1264.45
351.096	1276.14
351.32	1289.06
351.543	1300.45
351.767	1314.92
351.99	1326.01
352.214	1337.14
352.438	1351.12
352.661	1363.05
352.885	1375.65
353.108	1387.03
353.332	1399.68
353.555	1411.97
353.779	1423.97
354.002	1436.23
354.226	1447.94
354.449	1458.28
354.673	1471.03
354.896	1482.37
355.12	1495.34
355.343	1506.97
355.566	1517.03
355.79	1529.45
356.013	1541.94
356.237	1552.7
356.46	1564.95
356.683	1575.08
356.907	1587.7
357.13	1598.77
357.353	1611.66
357.576	1622.23
357.8	1636.3
358.023	1651.03
358.246	1664.5
358.469	1675.75
358.693	1687.37
358.916	1699.88
359.139	1715.12
359.362	1727.43
359.585	1738.39
359.808	1750.55
360.031	1763.85
360.255	1776.01
360.478	1790.32
360.701	1804.28
360.924	1815.81
361.147	1829.7
361.37	1843.37
361.593	1856.48
361.816	1870.57
362.039	1886.61
362.262	1901.61
362.485	1916.21
362.708	1929.28
362.931	1939.28
363.154	1952.12
363.377	1968.59
363.599	1983.59
363.822	1996.48
364.045	2009.06
364.268	2024.06
364.491	2038.12
364.714	2052.34
364.936	2067.5
365.159	2083.86
365.382	2100.92
365.605	2115.92
365.828	2134.12
366.05	2149.99
366.273	2164.41
366.496	2178.39
366.718	2194.75
366.941	2209.88
367.164	2226.08
367.386	2242.99
367.609	2256.34
367.832	2271.43
368.054	2286.81
368.277	2300.01
368.5	2315.92
368.722	2332.03
368.945	2349.75
369.167	2366.95
369.39	2383.75
369.612	2399.54
369.835	2415.15
370.057	2432.12
370.28	2450.65
370.502	2467.77
370.725	2484.05
370.947	2500.75
371.169	2520.63
371.392	2538.35
371.614	2552.86
371.837	2570.65
372.059	2587.37
372.281	2604.32
372.504	2623.37
372.726	2637.97
372.948	2654.55
373.171	2671.39
373.393	2687.79
373.615	2703.06
373.837	2719.72
374.06	2738.28
374.282	2755.54
374.504	2774.61
374.726	2793.26
374.948	2813.55
375.17	2832.72
375.393	2855.35
375.615	2875.63
375.837	2895.75
376.059	2917.66
376.281	2937.83
376.503	2957.08
376.725	2977.41
376.947	2997.32
377.169	3015.21
377.391	3030.59
377.613	3054.9
377.835	3072.63
378.057	3093.43
378.279	3115.05
378.501	3135.97
378.723	3158.03
378.945	3180.72
379.167	3200.97
379.389	3222.32
379.611	3245.68
379.833	3273.77
380.054	3295.46
380.276	3319.77
380.498	3343.34
380.72	3368.34
380.942	3395.81
381.163	3418.86
381.385	3444.83
381.607	3471.72
381.829	3497.46
382.05	3520.68
382.272	3542.9
382.494	3567.97
382.716	3591.3
382.937	3616.74
383.159	3639.25
383.381	3659.97
383.602	3687.35
383.824	3712.34
384.045	3740.23
384.267	3765.21
384.488	3795.61
384.71	3820.88
384.932	3849.75
385.153	3878.17
385.375	3906.92
385.596	3934.19
385.818	3964.77
386.039	3992.14
386.261	4018.19
386.482	4043.97
386.703	4074.85
386.925	4100.77
387.146	4130.23
387.368	4159.1
387.589	4190.81
387.81	4220.7
388.032	4250.9
388.253	4277.19
388.474	4306.77
388.696	4338.3
388.917	4370.63
389.138	4401.46
389.359	4433.54
389.581	4466.39
389.802	4493.57
390.023	4523.21
390.244	4550.77
390.465	4582.48
390.687	4612.03
390.908	4643.39
391.129	4676.75
391.35	4702.25
391.571	4735.1
391.792	4766.83
392.013	4795.34
392.234	4828.95
392.455	4857.59
392.677	4890.99
392.898	4920.95
393.119	4956.1
393.34	4988.94
393.561	5019.79
393.782	5058.83
394.003	5087.26
394.223	5119.05
394.444	5153.45
394.665	5184.52
394.886	5219.45
395.107	5250.25
395.328	5287.1
395.549	5321.46
395.77	5358.28
395.99	5391.75
396.211	5421.59
396.432	5457.45
396.653	5493.57
396.874	5526.85
397.094	5561.03
397.315	5596.17
397.536	5635.35
397.757	5668.92
397.977	5706.66
398.198	5740.19
398.419	5776.06
398.639	5812.92
398.86	5846.19
399.081	5876.79
399.301	5914.57
399.522	5952.3
399.742	5985.9
399.963	6018.5
400.184	6052.1
400.404	6083.19
400.625	6114.37
400.845	6146.68
401.066	6181.92
401.286	6219.52
401.507	6260.25
401.727	6291.48
401.948	6328.65
402.168	6367.83
402.388	6401.59
402.609	6439.14
402.829	6477.32
403.05	6518.37
403.27	6556.65
403.49	6589.25
403.711	6622.45
403.931	6654.45
404.151	6691.57
404.372	6723.9
404.592	6755.32
404.812	6789.79
405.032	6825.75
405.253	6855.06
405.473	6884.77
405.693	6919.12
405.913	6958.06
406.133	6992.97
406.353	7031.55
406.574	7067.95
406.794	7101.37
407.014	7138.97
407.234	7179.61
407.454	7213.15
407.674	7254.17
407.894	7292.9
408.114	7326.37
408.334	7365.06
408.554	7400.68
408.774	7436.41
408.994	7475.5
409.214	7516.75
409.434	7551.83
409.654	7589.45
409.874	7629.41
410.094	7664.43
410.314	7707.55
410.534	7747.99
410.754	7785.72
410.974	7826.06
411.193	7865.55
411.413	7903.32
411.633	7941.5
411.853	7981.03
412.073	8022.48
412.292	8058.5
412.512	8098.26
412.732	8131.86
412.952	8171.14
413.171	8211.55
413.391	8252.57
413.611	8292.01
413.831	8332.26
414.05	8372.99
414.27	8411.97
414.489	8451.85
414.709	8494.72
414.929	8538.79
415.148	8584.46
415.368	8628.35
415.587	8668.45
415.807	8709.37
416.026	8751.39
416.246	8794.46
416.465	8836.12
416.685	8882.97
416.904	8923.19
417.124	8966.83
417.343	9012.15
417.563	9057.19
417.782	9102.65
418.002	9146.26
418.221	9188.99
418.44	9235.23
418.66	9279.79
418.879	9322.55
419.098	9366.46
419.318	9412.88
419.537	9456.75
419.756	9498.1
419.976	9539.65
420.195	9581.55
420.414	9626.52
420.633	9673.85
420.853	9713.43
421.072	9754.79
421.291	9799.26
421.51	9844.66
421.729	9886.72
421.948	9930.97
422.168	9973.85
422.387	10017.28
422.606	10063.9
422.825	10109.48
423.044	10155.01
423.263	10202.92
423.482	10249.94
423.701	10298.14
423.92	10342.5
424.139	10388.01
424.358	10430.19
424.577	10475.45
424.796	10520.66
425.015	10565.08
425.234	10610.06
425.453	10653.81
425.672	10700.06
425.891	10745.32
426.11	10789.03
426.328	10831.43
426.547	10875.34
426.766	10922.75
426.985	10969.72
427.204	11018.19
427.422	11064.99
427.641	11110.34
427.86	11161.95
428.079	11209.85
428.297	11257.88
428.516	11306.61
428.735	11358.03
428.954	11408.39
429.172	11460.08
429.391	11510.68
429.61	11560.08
429.828	11607.48
430.047	11656.94
430.265	11702.34
430.484	11747.25
430.703	11790.75
430.921	11836.06
431.14	11881.32
431.358	11926.65
431.577	11973.35
431.795	12020.46
432.014	12063.46
432.232	12110.28
432.451	12159.75
432.669	12201.66
432.887	12249.97
433.106	12296.83
433.324	12349.37
433.543	12396.15
433.761	12443.72
433.979	12490.63
434.198	12536.43
434.416	12587.06
434.634	12631.01
434.853	12672.83
435.071	12723.45
435.289	12769.7
435.507	12821.43
435.726	12858.08
435.944	12907.06
436.162	12955.05
436.38	13000.5
436.598	13050.32
436.817	13094.28
437.035	13145.17
437.253	13197.19
437.471	13245.94
437.689	13295.28
437.907	13342.79
438.125	13391.75
438.343	13446.52
438.561	13493.25
438.78	13538.88
438.998	13585.1
439.216	13633.01
439.434	13686.17
439.652	13728.86
439.869	13778.61
440.087	13822.97
440.305	13873.26
440.523	13925.28
440.741	13966.41
440.959	14015.28
441.177	14068.77
441.395	14111.39
441.613	14159.63
441.831	14201.94
442.048	14251.03
442.266	14295.54
442.484	14341.48
442.702	14389.65
442.919	14436.66
443.137	14483.9
443.355	14534.1
443.573	14579.77
443.79	14632.68
444.008	14677.66
444.226	14725.55
444.443	14774.45
444.661	14823.35
444.879	14879.97
445.096	14920.34
445.314	14974.1
445.532	15024.66
445.749	15074.5
445.967	15123.26
446.184	15168.61
446.402	15216.54
446.619	15262.03
446.837	15313.1
447.054	15362.48
447.272	15399.85
447.489	15451.7
447.707	15496.03
447.924	15541.55
448.141	15589.1
448.359	15637.97
448.576	15690.08
448.794	15742.12
449.011	15797.28
449.228	15843.25
449.446	15888.12
449.663	15943.61
449.88	15990.41
450.098	16037.85
450.315	16088.3
450.532	16137.21
450.749	16186.54
450.967	16235.77
451.184	16284.48
451.401	16331.19
451.618	16379.52
451.835	16430.48
452.052	16472.95
452.27	16519.59
452.487	16567.9
452.704	16619.34
452.921	16663.45
453.138	16711.72
453.355	16759.94
453.572	16810.37
453.789	16855.35
454.006	16909.52
454.223	16959.17
454.44	17016.14
454.657	17065.59
454.874	17108.95
455.091	17155.55
455.308	17203.79
455.525	17258.26
455.742	17304.85
455.959	17344.54
456.176	17390.94
456.393	17430.34
456.609	17475.52
456.826	17521.01
457.043	17569.17
457.26	17621.3
457.477	17664.25
457.693	17705.06
457.91	17740.48
458.127	17787.03
458.344	17838.12
458.56	17882.65
458.777	17927.46
458.994	17963.21
459.21	18000.35
459.427	18033.1
459.644	18066.48
459.86	18100.45
460.077	18140.15
460.294	18171.65
460.51	18204.85
460.727	18241.1
460.943	18278.25
461.16	18307.65
461.376	18345.41
461.593	18378.03
461.809	18423.32
462.026	18467.59
462.242	18505.77
462.459	18551.01
462.675	18601.66
462.892	18638.7
463.108	18678.72
463.324	18718.14
463.541	18762.21
463.757	18803.59
463.974	18854.97
464.19	18896.01
464.406	18942.54
464.623	18992.08
464.839	19039.01
465.055	19081.81
465.271	19127.5
465.488	19174.68
465.704	19218.9
465.92	19273.34
466.136	19333.25
466.353	19379.7
466.569	19434.28
466.785	19480.06
467.001	19537.97
467.217	19585.43
467.433	19647.48
467.649	19711.48
467.865	19770.14
468.082	19839.05
468.298	19895.55
468.514	19949.17
468.73	20017.25
468.946	20079.14
469.162	20146.81
469.378	20210.41
469.594	20272.25
469.81	20327.26
470.026	20387.52
470.242	20449.14
470.457	20514.05
470.673	20581.34
470.889	20653.66
471.105	20720.41
471.321	20793.81
471.537	20869.41
471.753	20932.75
471.968	21004.86
472.184	21074.74
472.4	21148.3
472.616	21220.08
472.832	21284.32
473.047	21359.12
473.263	21421.32
473.479	21485.85
473.694	21554.01
473.91	21618.55
474.126	21692.54
474.341	21763.95
474.557	21841.79
474.773	21911.32
474.988	21983.23
475.204	22064.01
475.42	22140.41
475.635	22220.35
475.851	22298.17
476.066	22373.72
476.282	22448.63
476.497	22525.32
476.713	22601.25
476.928	22668.28
477.144	22738.35
477.359	22804.63
477.575	22864.45
477.79	22927.45
478.005	22988.23
478.221	23046.45
478.436	23099.81
478.651	23156.32
478.867	23212.99
479.082	23269.14
479.297	23329.83
479.513	23386.28
479.728	23441.92
479.943	23492.81
480.159	23540.7
480.374	23599.19
480.589	23655.99
480.804	23709.92
481.019	23762.97
481.235	23806.66
481.45	23860.88
481.665	23907.03
481.88	23965.99
482.095	24028.17
482.31	24091.45
482.525	24144.79
482.741	24194.5
482.956	24243.32
483.171	24298.65
483.386	24349.28
483.601	24395.77
483.816	24442.46
484.031	24488.97
484.246	24528.48
484.461	24563.61
484.676	24603.01
484.891	24653.25
485.105	24691.01
485.32	24736.37
485.535	24771.01
485.75	24807.06
485.965	24856.12
486.18	24886.06
486.395	24930.03
486.609	24967.55
486.824	25011.46
487.039	25050.35
487.254	25088.08
487.469	25136.05
487.683	25170.35
487.898	25209.55
488.113	25248.05
488.327	25285.46
488.542	25335.08
488.757	25371.7
488.972	25410.83
489.186	25436.21
489.401	25462.92
489.615	25494.99
489.83	25524.75
490.045	25559.08
490.259	25591.21
490.474	25625.59
490.688	25651.28
490.903	25681.63
491.117	25712.92
491.332	25742.52
491.546	25779.12
491.761	25819.95
491.975	25849.15
492.19	25874.74
492.404	25905.46
492.618	25939.26
492.833	25973.41
493.047	26007.88
493.262	26029.45
493.476	26054.79
493.69	26085.17
493.905	26114.9
494.119	26140.48
494.333	26167.23
494.547	26207.14
494.762	26233.39
494.976	26266.03
495.19	26287.9
495.404	26314.37
495.619	26341.05
495.833	26366.92
496.047	26385.79
496.261	26408.1
496.475	26426.32
496.689	26445.9
496.903	26446.21
497.117	26453.57
497.332	26448.79
497.546	26447.79
497.76	26437.85
497.974	26432.45
498.188	26420.21
498.402	26410.1
498.616	26400.74
498.83	26385.17
499.044	26370.19
499.258	26365.37
499.472	26365.75
499.685	26372.37
499.899	26376.23
500.113	26395.32
500.327	26412.57
500.541	26422.55
500.755	26438.5
500.969	26457.15
501.183	26480.99
501.396	26498.97
501.61	26520.72
501.824	26535.79
502.038	26545.86
502.251	26572.74
502.465	26583.97
502.679	26596.72
502.892	26623.45
503.106	26639.94
503.32	26660.55
503.533	26674.74
503.747	26701.99
503.961	26725.06
504.174	26742.66
504.388	26776.54
504.602	26806.68
504.815	26845.15
505.029	26885.17
505.242	26935.26
505.456	26984.99
505.669	27024.94
505.883	27086.25
506.096	27140.23
506.31	27201.25
506.523	27268.75
506.736	27322.03
506.95	27379.34
507.163	27431.92
507.377	27490.66
507.59	27541.92
507.803	27595.32
508.017	27657.85
508.23	27711.43
508.443	27774.12
508.657	27832.77
508.87	27897.83
509.083	27966.77
509.296	28029.79
509.51	28113.5
509.723	28195.7
509.936	28272.32
510.149	28363.97
510.363	28444.59
510.576	28531.05
510.789	28621.41
511.002	28717.99
511.215	28820.39
511.428	28926.08
511.641	29028.05
511.854	29116.52
512.067	29214.19
512.28	29324.9
512.493	29421.12
512.707	29533.52
512.92	29644.35
513.132	29742.55
513.345	29839.21
513.558	29942.79
513.771	30042.45
513.984	30155.85
514.197	30263.99
514.41	30366.55
514.623	30464.12
514.836	30571.1
515.049	30675.9
515.262	30776.32
515.474	30884.79
515.687	30996.23
515.9	31089.63
516.113	31185.3
516.325	31271.9
516.538	31367.94
516.751	31465.35
516.964	31559.75
517.176	31644.92
517.389	31728.59
517.602	31817.14
517.814	31898.59
518.027	31979.43
518.24	32058.79
518.452	32141.14
518.665	32226.85
518.877	32302.48
519.09	32380.54
519.303	32446.5
519.515	32532.74
519.728	32607.57
519.94	32673.88
520.153	32738.55
520.365	32800.32
520.578	32869.26
520.79	32932.61
521.002	32999.1
521.215	33067.26
521.427	33122.41
521.64	33183.01
521.852	33228.25
522.064	33279.46
522.277	33330.06
522.489	33378.74
522.701	33431.06
522.914	33484.39
523.126	33537.15
523.338	33584.37
523.551	33631.46
523.763	33678.14
523.975	33725.97
524.187	33778.37
524.399	33829.77
524.612	33893.1
524.824	33947.99
525.036	34000.7
525.248	34046.9
525.46	34092.83
525.672	34127.9
525.884	34171.63
526.096	34213.65
526.308	34261.17
526.521	34292.48
526.733	34321.88
526.945	34343.92
527.157	34373.3
527.369	34398.95
527.581	34434.83
527.793	34458.45
528.004	34483.92
528.216	34510.94
528.428	34544.1
528.64	34564.75
528.852	34594.68
529.064	34625.81
529.276	34659.43
529.488	34693.19
529.699	34721.48
529.911	34744.32
530.123	34772.28
530.335	34808.99
530.547	34845.77
530.758	34865.77
530.97	34899.45
531.182	34935.48
531.393	34970.45
531.605	35003.77
531.817	35039.65
532.029	35083.92
532.24	35112.52
532.452	35140.3
532.663	35168.26
532.875	35183.92
533.087	35209.39
533.298	35228.48
533.51	35252.05
533.721	35280.34
533.933	35297.41
534.144	35299.05
534.356	35291.1
534.567	35307.81
534.779	35331.72
534.99	35348.25
535.202	35363.99
535.413	35387.32
535.624	35418.12
535.836	35428.92
536.047	35445.52
536.259	35462.9
536.47	35500.86
536.681	35531.88
536.893	35551.14
537.104	35569.5
537.315	35587.59
537.526	35613.77
537.738	35635.94
537.949	35650.26
538.16	35673.26
538.371	35684.97
538.582	35692.85
538.794	35706.3
539.005	35725.68
539.216	35742.66
539.427	35769.79
539.638	35790.97
539.849	35809.52
540.06	35825.74
540.272	35833.46
540.483	35849.72
540.694	35860.23
540.905	35887.34
541.116	35894.65
541.327	35909.61
541.538	35921.63
541.749	35922.66
541.96	35934.92
542.17	35948.83
542.381	35945.94
542.592	35958.81
542.803	35963.01
543.014	35974.35
543.225	35973.81
543.436	35984.88
543.647	35991.43
543.857	36000.61
544.068	36004.7
544.279	36007.39
544.49	36012.15
544.701	36030.1
544.911	36040.06
545.122	36057.14
545.333	36066.23
545.543	36090.1
545.754	36102.94
545.965	36110.55
546.175	36115.83
546.386	36128.5
546.597	36143.79
546.807	36154.15
547.018	36168.5
547.229	36173.61
547.439	36187.59
547.65	36191.81
547.86	36185.41
548.071	36185.43
548.281	36194.92
548.492	36202.66
548.702	36215.08
548.913	36215.94
549.123	36210.72
549.333	36221.94
549.544	36237.57
549.754	36236.43
549.965	36254.45
550.175	36267.26
550.385	36290.41
550.596	36312.54
550.806	36323.3
551.016	36326.68
551.227	36346.9
551.437	36357.83
551.647	36364.61
551.857	36380.77
552.068	36391.65
552.278	36395.57
552.488	36406.39
552.698	36411.3
552.908	36400.66
553.119	36411.17
553.329	36421.21
553.539	36420.03
553.749	36429.23
553.959	36423.9
554.169	36425.59
554.379	36431.3
554.589	36429.59
554.799	36431.05
555.009	36424.17
555.219	36435.95
555.429	36438.54
555.639	36446.65
555.849	36448.95
556.059	36446.3
556.269	36448.17
556.479	36447.59
556.689	36440.61
556.899	36441.63
557.109	36449.65
557.319	36458.05
557.528	36454.26
557.738	36465.9
557.948	36459.88
558.158	36464.46
558.368	36469.48
558.577	36464.01
558.787	36457.28
558.997	36466.72
559.207	36468.23
559.416	36456.32
559.626	36443.05
559.836	36428.26
560.045	36405.12
560.255	36402.85
560.465	36387.95
560.674	36387.06
560.884	36391.5
561.093	36390.17
561.303	36374.17
561.512	36368.95
561.722	36367.43
561.932	36373.75
562.141	36385.61
562.351	36388.37
562.56	36387.43
562.769	36393.21
562.979	36390.01
563.188	36388.81
563.398	36383.01
563.607	36392.39
563.817	36387.75
564.026	36383.17
564.235	36378.74
564.445	36374.92
564.654	36382.52
564.863	36379.86
565.073	36375.79
565.282	36379.95
565.491	36373.79
565.7	36366.35
565.91	36350.14
566.119	36360.63
566.328	36357.9
566.537	36340.92
566.746	36330.3
566.956	36311.17
567.165	36299.1
567.374	36283.5
567.583	36265.75
567.792	36259.3
568.001	36247.26
568.21	36237.61
568.419	36205.52
568.628	36188.1
568.837	36168.26
569.046	36138.66
569.255	36119.23
569.464	36097.05
569.673	36071.63
569.882	36041.77
570.091	36016.14
570.3	36004.05
570.509	35985.92
570.718	35974.14
570.927	35967.81
571.135	35964.06
571.344	35954.55
571.553	35947.85
571.762	35937.92
571.971	35947.06
572.18	35946.34
572.388	35933.72
572.597	35923.1
572.806	35913.35
573.014	35898.79
573.223	35870.83
573.432	35849.3
573.641	35840.26
573.849	35820.61
574.058	35795.26
574.266	35760.55
574.475	35747.46
574.684	35728.32
574.892	35706.99
575.101	35691.32
575.309	35678.63
575.518	35671.06
575.726	35664.57
575.935	35647.15
576.143	35630.54
576.352	35627.41
576.56	35616.92
576.769	35604.26
576.977	35597.23
577.186	35579.46
577.394	35568.65
577.602	35540.9
577.811	35519.1
578.019	35502.1
578.228	35489.1
578.436	35470.7
578.644	35451.74
578.852	35432.55
579.061	35394.34
579.269	35375.65
579.477	35353.65
579.685	35330.61
579.894	35319.99
580.102	35303.81
580.31	35284.95
580.518	35267.94
580.726	35253.77
580.935	35235.21
581.143	35210.26
581.351	35204.1
581.559	35178.57
581.767	35164.79
581.975	35140.75
582.183	35123.79
582.391	35097.65
582.599	35075.23
582.807	35053.55
583.015	35037.45
583.223	35019.05
583.431	35008.66
583.639	34991.19
583.847	34976.55
584.055	34951.72
584.263	34924.01
584.471	34905.57
584.678	34882.14
584.886	34858.61
585.094	34839.01
585.302	34813.92
585.51	34784.79
585.718	34760.75
585.925	34740.95
586.133	34712.12
586.341	34702.28
586.549	34696.55
586.756	34677.34
586.964	34665.68
587.172	34647.45
587.379	34627.45
587.587	34605.41
587.795	34592.7
588.002	34566.41
588.21	34536.46
588.417	34517.41
588.625	34486.14
588.833	34452.54
589.04	34425.45
589.248	34403.59
589.455	34385.5
589.663	34359.74
589.87	34343.68
590.078	34319.17
590.285	34307.32
590.492	34290.95
590.7	34270.55
590.907	34252.55
591.115	34240.1
591.322	34215.1
591.529	34191.86
591.737	34163.61
591.944	34133.88
592.151	34110.65
592.359	34083.7
592.566	34050.5
592.773	34017.72
592.981	33987.77
593.188	33960.95
593.395	33931.79
593.602	33907.5
593.809	33872.21
594.017	33848.68
594.224	33824.9
594.431	33783.79
594.638	33756.68
594.845	33730.19
595.052	33703.63
595.259	33675.48
595.466	33645.05
595.673	33617.32
595.88	33596.21
596.088	33578.94
596.295	33550.54
596.502	33525.9
596.709	33504.59
596.915	33487.3
597.122	33471.05
597.329	33448.19
597.536	33423.19
597.743	33407.86
597.95	33387.41
598.157	33353.65
598.364	33322.43
598.571	33287.21
598.777	33251.34
598.984	33207.28
599.191	33152.92
599.398	33094.63
599.605	33045.37
599.811	33007.15
600.018	32945.3
600.225	32887.59
600.431	32832.08
600.638	32786.01
600.845	32751.77
601.052	32719.1
601.258	32692.35
601.465	32649.35
601.671	32601.17
601.878	32541.17
602.085	32466.57
602.291	32366.86
602.498	32252.66
602.704	32129.01
602.911	31976.08
603.117	31789.35
603.324	31585.75
603.53	31364.81
603.737	31135.32
603.943	30898.43
604.15	30653.86
604.356	30395.92
604.562	30148.41
604.769	29896.06
604.975	29636.1
605.181	29372.5
605.388	29107.97
605.594	28844.68
605.8	28584.74
606.007	28326.28
606.213	28057.99
606.419	27786.85
606.625	27513.32
606.832	27245.75
607.038	26967.35
607.244	26694.94
607.45	26423.88
607.656	26159.92
607.863	25886.19
608.069	25602.1
608.275	25321.45
608.481	25040.41
608.687	24755.59
608.893	24481.06
609.099	24197.03
609.305	23914.08
609.511	23628.48
609.717	23339.26
609.923	23041.77
610.129	22742.95
610.335	22444.68
610.541	22135.95
610.747	21836.46
610.953	21534.83
611.159	21220.55
611.365	20903.26
611.571	20582.77
611.776	20257.57
611.982	19933.34
612.188	19614.1
612.394	19292.39
612.6	18967.39
612.806	18648.39
613.011	18325.79
613.217	17992.41
613.423	17658.81
613.628	17345.35
613.834	17038.74
614.04	16730.32
614.246	16421.43
614.451	16117.86
614.657	15826.75
614.862	15537.85
615.068	15254.19
615.274	14970.77
615.479	14709.25
615.685	14454.95
615.89	14192.25
616.096	13924.95
616.301	13664.68
616.507	13408.74
616.712	13145.17
616.918	12878.9
617.123	12614.03
617.329	12346.06
617.534	12075.28
617.74	11791.05
617.945	11507.25
618.15	11203.9
618.356	10735.61
618.561	9877.28
618.766	8834.99
618.972	7762.65
619.177	6713.72
619.382	5692.01
619.588	4696.35
619.793	4101.46
619.998	3411.48
620.203	2578.82
620.408	1572.13
620.614	589.07
