Data from test1_MAYP1115451__1__10-14-38-055.txt Node

Date: Wed Jun 12 10:14:38 MDT 2024
User: Modes Lab
Spectrometer: MAYP111545
Trigger mode: 0
Integration Time (sec): 8.000000E-3
Scans to average: 5
Electric dark correction enabled: true
Nonlinearity correction enabled: false
Boxcar width: 5
XAxis mode: Wavelengths
Number of Pixels in Spectrum: 2068
>>>>>Begin Spectral Data<<<<<
165.214	162.03
165.449	161.8
165.683	170.77
165.918	180.39
166.152	187.01
166.387	192.48
166.621	124.37
166.856	162.55
167.09	181.48
167.325	205.55
167.559	221.37
167.794	236.31
168.028	243.8
168.263	245.88
168.497	245.37
168.732	245.57
168.966	246.11
169.2	247.33
169.435	249.53
169.669	251.48
169.903	252.89
170.138	255.58
170.372	256.18
170.606	258.11
170.841	258.58
171.075	259.71
171.309	261.8
171.544	263.6
171.778	265.93
172.012	267.04
172.246	268.95
172.48	270.57
172.715	272.35
172.949	274.8
173.183	276.49
173.417	278.82
173.651	280.51
173.885	282.55
174.119	282.91
174.354	284.02
174.588	284.93
174.822	284.78
175.056	284.8
175.29	285.08
175.524	285.02
175.758	284.88
175.992	284.95
176.226	285.46
176.46	285.28
176.694	286.17
176.928	286.02
177.162	287.11
177.396	287.49
177.63	288.89
177.864	290.04
178.097	290.84
178.331	292.8
178.565	293.15
178.799	294.71
179.033	294.49
179.267	294.75
179.5	295.58
179.734	296.22
179.968	297.24
180.202	297.98
180.436	297.8
180.669	298.93
180.903	299.46
181.137	300.68
181.371	300.97
181.604	302.64
181.838	304.55
182.072	305.97
182.305	306.37
182.539	307.37
182.772	308.24
183.006	309.48
183.24	309.62
183.473	313.04
183.707	314.69
183.94	315.4
184.174	316.33
184.408	317.22
184.641	318.53
184.875	318.97
185.108	320.62
185.342	321.86
185.575	322.86
185.808	324.57
186.042	323.4
186.275	324.08
186.509	325.2
186.742	326.51
186.976	328.77
187.209	330.4
187.442	331.97
187.676	332.44
187.909	334.02
188.142	334.64
188.376	335.97
188.609	337.51
188.842	339.04
189.076	341.24
189.309	342.89
189.542	342.75
189.775	343.29
190.009	345.53
190.242	346.86
190.475	348.17
190.708	351.57
190.941	353.42
191.174	354.64
191.408	355.48
191.641	356.64
191.874	357.97
192.107	361.49
192.34	363.13
192.573	364.35
192.806	367
193.039	368.04
193.272	369.44
193.505	370.95
193.738	373.71
193.971	376.02
194.204	378.15
194.437	380.04
194.67	380.8
194.903	382.88
195.136	386.86
195.369	387.82
195.602	389.93
195.835	391.93
196.068	394.58
196.301	395.71
196.533	398
196.766	399.31
196.999	401.58
197.232	403.18
197.465	405.82
197.698	406.4
197.93	408.77
198.163	411.78
198.396	413.68
198.629	415.4
198.861	417.53
199.094	419.18
199.327	421.82
199.559	423.8
199.792	425.77
200.025	427.89
200.257	430.33
200.49	433.29
200.723	435.4
200.955	437.57
201.188	438.71
201.42	441.68
201.653	444.28
201.886	446.66
202.118	449.37
202.351	452.91
202.583	456.26
202.816	458.2
203.048	460.35
203.281	461.31
203.513	463.73
203.745	467.97
203.978	468.86
204.21	471.4
204.443	473.33
204.675	474.98
204.907	477.11
205.14	477.95
205.372	481.04
205.605	482.68
205.837	486.55
206.069	488.04
206.302	489.31
206.534	492.24
206.766	494.69
206.998	497.04
207.231	500.02
207.463	501.73
207.695	505.17
207.927	506.89
208.159	510.62
208.392	512.35
208.624	515.98
208.856	518.02
209.088	519.88
209.32	522.71
209.552	525.26
209.784	527.44
210.017	529.88
210.249	531
210.481	533.53
210.713	535.33
210.945	536.42
211.177	538.18
211.409	541.11
211.641	542.75
211.873	543.06
212.105	543.64
212.337	545.22
212.569	547.71
212.801	549.73
213.033	551.31
213.264	551.71
213.496	554.42
213.728	555.66
213.96	556.71
214.192	558.8
214.424	561.15
214.656	564.04
214.887	565.84
215.119	568.24
215.351	571.2
215.583	573.64
215.815	576.4
216.046	579.29
216.278	580.66
216.51	583.51
216.741	585.04
216.973	588.28
217.205	591.35
217.436	593.55
217.668	595.69
217.9	596.53
218.131	597.04
218.363	598.28
218.595	598.28
218.826	600.31
219.058	601.6
219.289	603.8
219.521	604.24
219.752	605.22
219.984	605.98
220.215	604.62
220.447	606.08
220.678	606.31
220.91	608.04
221.141	610.66
221.373	611.28
221.604	611.84
221.836	613.11
222.067	614.31
222.298	614.29
222.53	614.66
222.761	615.97
222.993	617.38
223.224	619.71
223.455	620.73
223.686	620.48
223.918	622.35
224.149	623.08
224.38	623.69
224.612	623.98
224.843	624.88
225.074	626.46
225.305	627.09
225.536	626.84
225.768	626.8
225.999	627.51
226.23	628.18
226.461	629.08
226.692	629.82
226.923	630.64
227.155	631.84
227.386	631.88
227.617	631.69
227.848	634.15
228.079	634.15
228.31	633.73
228.541	633.84
228.772	634.64
229.003	634.82
229.234	635.69
229.465	634.58
229.696	634.88
229.927	635.18
230.158	636.11
230.389	633.97
230.62	635.22
230.85	636.95
231.081	636.22
231.312	635.37
231.543	635.13
231.774	634.02
232.005	635.62
232.236	634.13
232.466	634.62
232.697	634.53
232.928	635.73
233.159	634.02
233.389	633.33
233.62	633.69
233.851	633.69
234.082	633.73
234.312	634.06
234.543	634.28
234.774	635.26
235.004	634.69
235.235	635.26
235.466	634.35
235.696	634.89
235.927	635.8
236.157	634.8
236.388	635.75
236.618	635.2
236.849	635
237.08	633.33
237.31	633.08
237.541	632.66
237.771	631.73
238.002	632.02
238.232	632.22
238.463	631.89
238.693	632.28
238.923	630.75
239.154	630.53
239.384	629.46
239.615	631.13
239.845	629.84
240.075	630
240.306	629.62
240.536	628.64
240.766	628.26
240.997	626.29
241.227	626.15
241.457	625.57
241.687	625.18
241.918	625.58
242.148	623.89
242.378	624.77
242.608	625.04
242.839	625.64
243.069	625.71
243.299	624.11
243.529	626.8
243.759	627.06
243.989	628.18
244.22	628.24
244.45	627.33
244.68	627
244.91	626.28
245.14	624.91
245.37	623.93
245.6	624.6
245.83	623.93
246.06	621.2
246.29	620.57
246.52	620.11
246.75	619.69
246.98	620.04
247.21	619
247.44	617.8
247.67	616.71
247.9	616.09
248.13	614.73
248.359	615.88
248.589	614.95
248.819	613.75
249.049	612.11
249.279	611.57
249.509	610.8
249.738	611.51
249.968	611.66
250.198	611.13
250.428	610.6
250.657	609.08
250.887	607.57
251.117	607.33
251.347	606.2
251.576	606.11
251.806	604.04
252.036	603.75
252.265	602.04
252.495	601.88
252.725	601.11
252.954	598.89
253.184	597.75
253.413	598.13
253.643	598.26
253.873	597.53
254.102	596.58
254.332	597.2
254.561	596.55
254.791	596.38
255.02	594.58
255.25	595.91
255.479	596.13
255.708	596.69
255.938	594.17
256.167	592.62
256.397	592.91
256.626	592
256.856	591.22
257.085	590.13
257.314	588.35
257.544	587.84
257.773	585.64
258.002	586.68
258.232	586.38
258.461	586
258.69	585.33
258.919	583.6
259.149	582.24
259.378	580.18
259.607	578.37
259.836	577.42
260.065	577.31
260.295	577.17
260.524	575.95
260.753	575.37
260.982	574.77
261.211	574.49
261.44	574.73
261.669	574.15
261.899	573.08
262.128	572.89
262.357	572.88
262.586	571.4
262.815	570.62
263.044	569.31
263.273	571.71
263.502	570.77
263.731	570.44
263.96	568.91
264.189	568.17
264.418	569.2
264.646	569.24
264.875	568.57
265.104	567.35
265.333	567.51
265.562	565.57
265.791	561.68
266.02	561.13
266.249	559.15
266.477	558.04
266.706	557.29
266.935	554.86
267.164	554.17
267.393	553.44
267.621	554
267.85	551.89
268.079	551.88
268.307	550.31
268.536	549.04
268.765	550.2
268.993	549.97
269.222	550.58
269.451	552.46
269.679	552.15
269.908	551.82
270.137	551.11
270.365	551.84
270.594	552.86
270.822	552.51
271.051	554.58
271.279	553.6
271.508	554.58
271.736	555.24
271.965	554.42
272.193	554.33
272.422	554.38
272.65	553.69
272.879	552.58
273.107	551.33
273.336	551.82
273.564	550.88
273.792	549.42
274.021	548.69
274.249	546.18
274.477	544.82
274.706	543.44
274.934	542.73
275.162	542.57
275.391	541.98
275.619	540.31
275.847	538.57
276.075	537.46
276.304	535.8
276.532	534.26
276.76	534.18
276.988	533
277.216	532.58
277.445	531.33
277.673	530.58
277.901	530.22
278.129	529.31
278.357	529
278.585	528.29
278.813	528.18
279.041	527.37
279.269	526.38
279.497	525.78
279.725	524.82
279.954	523.46
280.182	522.64
280.41	521.6
280.637	521.95
280.865	522.2
281.093	522.18
281.321	522.18
281.549	522.64
281.777	522.58
282.005	520.49
282.233	520.75
282.461	520.58
282.689	519.46
282.916	518.98
283.144	518.48
283.372	515.88
283.6	515.15
283.828	514.71
284.055	513.57
284.283	513.93
284.511	514.18
284.739	512.15
284.966	512.75
285.194	512.2
285.422	511.64
285.649	512.4
285.877	511.68
286.105	509.31
286.332	509.55
286.56	510.06
286.788	507.97
287.015	509.68
287.243	509.44
287.47	508.13
287.698	507.18
287.925	506.62
288.153	505
288.381	506.58
288.608	507.37
288.836	506.29
289.063	504.73
289.29	503.77
289.518	502.62
289.745	502.62
289.973	502.09
290.2	502.84
290.428	501.37
290.655	500.89
290.882	498.86
291.11	498.86
291.337	498.04
291.564	497.88
291.792	498.33
292.019	497.15
292.246	495.75
292.473	495.18
292.701	494.46
292.928	493.2
293.155	492.33
293.382	491.64
293.61	490.88
293.837	489.55
294.064	487.95
294.291	487.13
294.518	487.42
294.745	486.71
294.972	487.26
295.2	485.88
295.427	487.51
295.654	486.78
295.881	487.84
296.108	486.38
296.335	486.71
296.562	486.75
296.789	486.33
297.016	485.29
297.243	485.48
297.47	485.28
297.697	486.11
297.924	485.17
298.151	485.13
298.378	483.64
298.604	483.38
298.831	483.04
299.058	482.68
299.285	481.78
299.512	480.8
299.739	480.69
299.966	478.49
300.192	477.26
300.419	476.37
300.646	475.13
300.873	475.06
301.099	474.62
301.326	474.26
301.553	473.49
301.78	474.53
302.006	474.98
302.233	474.53
302.46	474.37
302.686	472.8
302.913	473.37
303.14	472.4
303.366	471.55
303.593	471
303.819	471.2
304.046	470.77
304.272	468.91
304.499	468.57
304.725	468.18
304.952	466.75
305.179	466.75
305.405	466.88
305.631	466.89
305.858	467.08
306.084	467.2
306.311	465.55
306.537	466.35
306.764	465.64
306.99	464.89
307.216	464.82
307.443	465.18
307.669	466.09
307.895	465.28
308.122	465.48
308.348	464.71
308.574	464.4
308.801	463.77
309.027	464.69
309.253	464.49
309.479	464.35
309.706	463.93
309.932	464.51
310.158	464.04
310.384	462.91
310.61	463.55
310.837	462.84
311.063	462.35
311.289	462.18
311.515	459.95
311.741	459.89
311.967	460.02
312.193	459.73
312.419	459.37
312.645	458.53
312.871	457.18
313.097	456.88
313.323	458.91
313.549	460.44
313.775	461.68
314.001	462.78
314.227	463.15
314.453	462.49
314.679	463.18
314.905	463.46
315.131	463.62
315.357	465.6
315.583	465.09
315.809	464.78
316.034	464.13
316.26	463.38
316.486	462.2
316.712	463.04
316.938	464.22
317.163	463.35
317.389	463.58
317.615	464.48
317.841	464.77
318.066	465
318.292	464.95
318.518	465.53
318.743	466.33
318.969	467.6
319.195	468.08
319.42	467.82
319.646	469.89
319.872	469.88
320.097	471.37
320.323	472.02
320.548	474.09
320.774	475.66
320.999	476.73
321.225	478.09
321.45	480.18
321.676	481.17
321.901	483.33
322.127	484.06
322.352	485.93
322.578	486.88
322.803	489.04
323.029	490.06
323.254	490.75
323.479	491.49
323.705	492.29
323.93	493.35
324.155	495.09
324.381	496.6
324.606	498.78
324.831	501.08
325.057	502.82
325.282	503.93
325.507	505.77
325.732	508.11
325.958	511.71
326.183	515.82
326.408	516.84
326.633	520.86
326.858	523.15
327.084	525.77
327.309	528.82
327.534	531.57
327.759	534.55
327.984	538.11
328.209	540.86
328.434	543.28
328.659	545.38
328.884	551.24
329.109	553.46
329.334	556.17
329.559	559.44
329.784	562.58
330.009	566.64
330.234	570.31
330.459	573.8
330.684	576.35
330.909	579.69
331.134	583.84
331.359	585.66
331.584	589.8
331.809	594.98
332.034	598.33
332.259	601.53
332.483	605.97
332.708	610.49
332.933	614.84
333.158	621.44
333.383	627.33
333.607	632.38
333.832	637.62
334.057	641.66
334.282	646.49
334.506	651.91
334.731	658.33
334.956	663.4
335.18	669.49
335.405	674.15
335.63	679.22
335.854	683.77
336.079	689.71
336.303	695.78
336.528	702.24
336.753	707.77
336.977	715.26
337.202	721.13
337.426	728.68
337.651	735.33
337.875	742.09
338.1	749.31
338.324	755.42
338.549	762.77
338.773	770.89
338.997	778.58
339.222	785.93
339.446	792.28
339.671	800.2
339.895	805.58
340.119	812.29
340.344	820.55
340.568	828.28
340.792	836.37
341.017	843.37
341.241	849.28
341.465	856.4
341.689	862.8
341.914	871.77
342.138	880.46
342.362	889.82
342.586	898.73
342.811	905.84
343.035	913.69
343.259	921.68
343.483	930.44
343.707	939.89
343.931	948.86
344.155	960.33
344.38	967.95
344.604	975.11
344.828	984.73
345.052	993.6
345.276	1003.2
345.5	1012.35
345.724	1023.04
345.948	1032.04
346.172	1042.42
346.396	1053.73
346.62	1065.53
346.844	1076.17
347.068	1086.58
347.292	1096.71
347.515	1106.49
347.739	1119.86
347.963	1131.57
348.187	1141.48
348.411	1152.77
348.635	1164.82
348.859	1174.2
349.082	1182.18
349.306	1193.04
349.53	1204.91
349.754	1216.73
349.977	1229.6
350.201	1239.24
350.425	1250.55
350.649	1262.97
350.872	1273.17
351.096	1283
351.32	1295.98
351.543	1307.46
351.767	1317.13
351.99	1327.04
352.214	1336.91
352.438	1348.13
352.661	1359.17
352.885	1369.09
353.108	1379.35
353.332	1391.46
353.555	1402.53
353.779	1411.37
354.002	1422.15
354.226	1434.37
354.449	1447.89
354.673	1459.31
354.896	1471.95
355.12	1484.86
355.343	1497.86
355.566	1511.86
355.79	1523.73
356.013	1537.26
356.237	1551.95
356.46	1565.06
356.683	1579.44
356.907	1593.73
357.13	1607
357.353	1615.82
357.576	1626.44
357.8	1637.35
358.023	1649.28
358.246	1662.71
358.469	1674.51
358.693	1686.49
358.916	1700.18
359.139	1712.53
359.362	1722.53
359.585	1734.08
359.808	1750.35
360.031	1765.44
360.255	1780.37
360.478	1792.95
360.701	1808.04
360.924	1822.68
361.147	1834.8
361.37	1848.31
361.593	1860.53
361.816	1876.24
362.039	1892.51
362.262	1904.82
362.485	1918.18
362.708	1930.78
362.931	1944.04
363.154	1957.91
363.377	1970
363.599	1984.48
363.822	1997.84
364.045	2013.57
364.268	2024.08
364.491	2036.53
364.714	2050.62
364.936	2065.22
365.159	2080.4
365.382	2097.51
365.605	2111.48
365.828	2130.22
366.05	2144.62
366.273	2159.51
366.496	2174.66
366.718	2194.09
366.941	2210.48
367.164	2226.6
367.386	2241.2
367.609	2257.89
367.832	2273.29
368.054	2289.95
368.277	2301.57
368.5	2321.48
368.722	2338.49
368.945	2354.38
369.167	2369.04
369.39	2385.62
369.612	2402.89
369.835	2418.55
370.057	2434.09
370.28	2448.33
370.502	2462.91
370.725	2481.13
370.947	2494.69
371.169	2513.15
371.392	2528.86
371.614	2545.08
371.837	2561.4
372.059	2577.66
372.281	2594.64
372.504	2612.97
372.726	2633.13
372.948	2651.78
373.171	2669.78
373.393	2689.64
373.615	2703.89
373.837	2722.29
374.06	2740.77
374.282	2758.91
374.504	2778.71
374.726	2799.86
374.948	2819.42
375.17	2840.08
375.393	2857.88
375.615	2877.18
375.837	2897.42
376.059	2919.49
376.281	2942.46
376.503	2961.71
376.725	2983.82
376.947	3003.29
377.169	3020.98
377.391	3040.6
377.613	3058.09
377.835	3081.44
378.057	3103.73
378.279	3123.06
378.501	3142.93
378.723	3162.78
378.945	3187.2
379.167	3209.2
379.389	3231.58
379.611	3254.4
379.833	3280.75
380.054	3305.57
380.276	3327.42
380.498	3352.77
380.72	3375.2
380.942	3398.75
381.163	3422.98
381.385	3446.35
381.607	3472.49
381.829	3498.49
382.05	3524.26
382.272	3546.24
382.494	3572.37
382.716	3595.31
382.937	3619.31
383.159	3647.17
383.381	3677.38
383.602	3701.75
383.824	3726.11
384.045	3747.89
384.267	3774.04
384.488	3800.89
384.71	3826.88
384.932	3851.82
385.153	3879.88
385.375	3904.53
385.596	3931.8
385.818	3956.38
386.039	3985.38
386.261	4015.71
386.482	4046.37
386.703	4072.97
386.925	4100.78
387.146	4131.2
387.368	4161.84
387.589	4194.28
387.81	4223.26
388.032	4252.95
388.253	4282.11
388.474	4312.75
388.696	4341.6
388.917	4369.88
389.138	4399.73
389.359	4432.78
389.581	4462.98
389.802	4491.57
390.023	4519.88
390.244	4550.09
390.465	4579.31
390.687	4608.24
390.908	4637.2
391.129	4668.82
391.35	4700.48
391.571	4732.15
391.792	4763.64
392.013	4793.84
392.234	4824.15
392.455	4856.71
392.677	4888.77
392.898	4922.22
393.119	4955.58
393.34	4988.51
393.561	5022.84
393.782	5055.91
394.003	5087.09
394.223	5119.37
394.444	5150.04
394.665	5183.02
394.886	5215.55
395.107	5252.82
395.328	5286.17
395.549	5319.28
395.77	5353.08
395.99	5384.93
396.211	5419.73
396.432	5453.55
396.653	5489.71
396.874	5527.97
397.094	5565.53
397.315	5604.13
397.536	5634.49
397.757	5666.53
397.977	5701.48
398.198	5736.38
398.419	5768.08
398.639	5804
398.86	5839.69
399.081	5872.04
399.301	5906.49
399.522	5942.8
399.742	5974.97
399.963	6011.08
400.184	6047.46
400.404	6084.13
400.625	6119.18
400.845	6159.44
401.066	6192.28
401.286	6227.26
401.507	6262.31
401.727	6299.78
401.948	6330.73
402.168	6363.86
402.388	6401.06
402.609	6439.62
402.829	6472.28
403.05	6506.08
403.27	6539.71
403.49	6571.6
403.711	6609.4
403.931	6643.93
404.151	6676.93
404.372	6715.88
404.592	6752.49
404.812	6785.55
405.032	6819.09
405.253	6854.66
405.473	6890.24
405.693	6924.58
405.913	6969.64
406.133	7002.42
406.353	7041.82
406.574	7075.49
406.794	7109.98
407.014	7145.86
407.234	7183.46
407.454	7220.46
407.674	7256.2
407.894	7296.08
408.114	7329.26
408.334	7358.73
408.554	7397.18
408.774	7427.93
408.994	7466.73
409.214	7504.6
409.434	7542.55
409.654	7580.2
409.874	7618.35
410.094	7660.77
410.314	7699.24
410.534	7741.11
410.754	7780.37
410.974	7817.06
411.193	7856.26
411.413	7894.17
411.633	7931.53
411.853	7966.38
412.073	8004.18
412.292	8040.97
412.512	8078.55
412.732	8118.09
412.952	8158.17
413.171	8198.73
413.391	8244.31
413.611	8289.69
413.831	8331.55
414.05	8376.75
414.27	8418.06
414.489	8461.55
414.709	8503.44
414.929	8546.97
415.148	8584.18
415.368	8625.08
415.587	8668.97
415.807	8712.71
416.026	8751.71
416.246	8795.33
416.465	8838.77
416.685	8887
416.904	8929.2
417.124	8972.33
417.343	9019.08
417.563	9066.44
417.782	9113.37
418.002	9158.31
418.221	9197.46
418.44	9244.97
418.66	9289.51
418.879	9330.8
419.098	9370.18
419.318	9414.8
419.537	9465.04
419.756	9505.33
419.976	9547.09
420.195	9589.89
420.414	9637.95
420.633	9682.6
420.853	9724.71
421.072	9764.78
421.291	9808.38
421.51	9854.86
421.729	9900.53
421.948	9937.6
422.168	9980.18
422.387	10030.71
422.606	10077.35
422.825	10117.58
423.044	10161.58
423.263	10207.11
423.482	10254.17
423.701	10301.22
423.92	10347.11
424.139	10388.44
424.358	10435.44
424.577	10480.26
424.796	10520.48
425.015	10565.24
425.234	10606.15
425.453	10652.91
425.672	10702.68
425.891	10747.28
426.11	10793.66
426.328	10838.4
426.547	10886.42
426.766	10931.4
426.985	10977.11
427.204	11022.84
427.422	11071.37
427.641	11123.68
427.86	11170.09
428.079	11216.48
428.297	11266.46
428.516	11313.53
428.735	11362.4
428.954	11409.09
429.172	11460.58
429.391	11514.15
429.61	11561.71
429.828	11603.31
430.047	11645.55
430.265	11684.86
430.484	11725.4
430.703	11763.91
430.921	11807.8
431.14	11855.33
431.358	11899.17
431.577	11942.88
431.795	11986.75
432.014	12036.09
432.232	12087.22
432.451	12140.28
432.669	12197.75
432.887	12245.38
433.106	12298.44
433.324	12343.48
433.543	12391.98
433.761	12441.53
433.979	12492.33
434.198	12539.33
434.416	12587.75
434.634	12631.42
434.853	12676.62
435.071	12724.29
435.289	12769.11
435.507	12814.11
435.726	12859.13
435.944	12906.77
436.162	12957.35
436.38	13000.38
436.598	13042.71
436.817	13087.98
437.035	13137.78
437.253	13182.64
437.471	13231.17
437.689	13287.31
437.907	13340.78
438.125	13393.38
438.343	13438.64
438.561	13481.44
438.78	13536.08
438.998	13591.11
439.216	13642.29
439.434	13693.33
439.652	13743.4
439.869	13784.22
440.087	13828.46
440.305	13876.89
440.523	13922.84
440.741	13977.77
440.959	14028.66
441.177	14076.33
441.395	14125.69
441.613	14174.18
441.831	14221.11
442.048	14265.58
442.266	14319.44
442.484	14367.2
442.702	14412.18
442.919	14460.11
443.137	14501.08
443.355	14549.77
443.573	14599.93
443.79	14647.48
444.008	14693.11
444.226	14735.26
444.443	14786.11
444.661	14833.37
444.879	14880.66
445.096	14929.84
445.314	14984.42
445.532	15040.68
445.749	15087.86
445.967	15128.17
446.184	15171.02
446.402	15220.06
446.619	15272.98
446.837	15324.95
447.054	15372.28
447.272	15420.26
447.489	15467.08
447.707	15511.11
447.924	15555.08
448.141	15607.33
448.359	15663.97
448.576	15722.86
448.794	15769.55
449.011	15818.04
449.228	15860.64
449.446	15908.17
449.663	15953.62
449.88	16005.15
450.098	16054.58
450.315	16100.29
450.532	16147.17
450.749	16189.75
450.967	16232.86
451.184	16284.93
451.401	16332.82
451.618	16383.88
451.835	16435.77
452.052	16484.29
452.27	16528.26
452.487	16575.13
452.704	16625.8
452.921	16676.91
453.138	16724.17
453.355	16773.09
453.572	16815.24
453.789	16864.49
454.006	16916
454.223	16959.15
454.44	17015.4
454.657	17067.82
454.874	17110.89
455.091	17152.09
455.308	17196.88
455.525	17247.08
455.742	17294.35
455.959	17349.48
456.176	17395.37
456.393	17441.37
456.609	17486.69
456.826	17524.98
457.043	17571.31
457.26	17624.11
457.477	17672.93
457.693	17713.06
457.91	17752.17
458.127	17794.11
458.344	17832.2
458.56	17875.08
458.777	17912.28
458.994	17953.38
459.21	17995.64
459.427	18027.33
459.644	18060.82
459.86	18099.86
460.077	18135.77
460.294	18170.8
460.51	18201.64
460.727	18229
460.943	18260.88
461.16	18297.28
461.376	18338.49
461.593	18379.38
461.809	18420.77
462.026	18463.71
462.242	18501.48
462.459	18545.13
462.675	18590.18
462.892	18635.91
463.108	18685.95
463.324	18731.97
463.541	18780.08
463.757	18827.15
463.974	18870.55
464.19	18915.55
464.406	18957.4
464.623	19006.15
464.839	19056.17
465.055	19102.64
465.271	19149.66
465.488	19194
465.704	19239.89
465.92	19284.57
466.136	19333.22
466.353	19381.11
466.569	19429.8
466.785	19481.64
467.001	19534.33
467.217	19589.06
467.433	19649.28
467.649	19707.62
467.865	19768.91
468.082	19826.77
468.298	19886.68
468.514	19943.26
468.73	20007.88
468.946	20076.33
469.162	20146.35
469.378	20206.26
469.594	20265.64
469.81	20322.33
470.026	20386.66
470.242	20447.42
470.457	20514.06
470.673	20584.06
470.889	20644.86
471.105	20712.68
471.321	20777.4
471.537	20840.75
471.753	20910.8
471.968	20981.8
472.184	21055.24
472.4	21122.24
472.616	21197.33
472.832	21267.02
473.047	21339.24
473.263	21415.6
473.479	21475.02
473.694	21549.17
473.91	21619.73
474.126	21697.35
474.341	21776.33
474.557	21854.55
474.773	21920.35
474.988	21988.89
475.204	22073.09
475.42	22145.77
475.635	22221.69
475.851	22304.37
476.066	22378.04
476.282	22449.15
476.497	22515.58
476.713	22579.49
476.928	22645
477.144	22720.97
477.359	22799.15
477.575	22855.89
477.79	22919.6
478.005	22982.24
478.221	23044.35
478.436	23102.18
478.651	23164.06
478.867	23222.95
479.082	23277.13
479.297	23336.11
479.513	23396.78
479.728	23443.15
479.943	23495.58
480.159	23549.98
480.374	23602.22
480.589	23653.11
480.804	23708.84
481.019	23763
481.235	23811.88
481.45	23870.89
481.665	23918.88
481.88	23969.97
482.095	24024.38
482.31	24081.24
482.525	24135.66
482.741	24188.71
482.956	24236.29
483.171	24281.22
483.386	24325.91
483.601	24372.11
483.816	24409
484.031	24453.15
484.246	24489.49
484.461	24527.75
484.676	24571.71
484.891	24615.18
485.105	24651.75
485.32	24696.11
485.535	24737.4
485.75	24782.69
485.965	24829.26
486.18	24877.84
486.395	24916.09
486.609	24968.37
486.824	25019.22
487.039	25056
487.254	25089.02
487.469	25134.49
487.683	25180.44
487.898	25219.26
488.113	25257.09
488.327	25293.17
488.542	25323.91
488.757	25370.77
488.972	25401.42
489.186	25433.86
489.401	25465.04
489.615	25497.38
489.83	25535.91
490.045	25571.17
490.259	25604.06
490.474	25637.57
490.688	25672.89
490.903	25718.2
491.117	25746.58
491.332	25781.26
491.546	25813.91
491.761	25850.46
491.975	25885.71
492.19	25912.86
492.404	25937.91
492.618	25975.33
492.833	25995.69
493.047	26024.48
493.262	26049.88
493.476	26068.04
493.69	26092.98
493.905	26116.93
494.119	26149.15
494.333	26172.57
494.547	26198.89
494.762	26230.11
494.976	26256.02
495.19	26289.6
495.404	26315.69
495.619	26340.18
495.833	26373.62
496.047	26398.44
496.261	26419.98
496.475	26433.98
496.689	26447.17
496.903	26454.08
497.117	26453.04
497.332	26451.89
497.546	26450.95
497.76	26439.29
497.974	26432.06
498.188	26420.51
498.402	26409.18
498.616	26393.33
498.83	26375.2
499.044	26371.91
499.258	26367.66
499.472	26372.09
499.685	26370.11
499.899	26374.58
500.113	26396.95
500.327	26403.82
500.541	26420.91
500.755	26440.2
500.969	26468.58
501.183	26494.98
501.396	26513.18
501.61	26529.69
501.824	26551.55
502.038	26573.97
502.251	26596.84
502.465	26607.77
502.679	26630.15
502.892	26650.8
503.106	26663.86
503.32	26677.29
503.533	26703.64
503.747	26722.42
503.961	26746.69
504.174	26764.49
504.388	26792.84
504.602	26817.71
504.815	26852.28
505.029	26889.24
505.242	26932.98
505.456	26981.86
505.669	27026.57
505.883	27072.35
506.096	27128.33
506.31	27185.73
506.523	27241.66
506.736	27292.46
506.95	27345.98
507.163	27399.2
507.377	27457.35
507.59	27508.8
507.803	27564.97
508.017	27625.55
508.23	27684.8
508.443	27747.49
508.657	27810.2
508.87	27872.88
509.083	27948.18
509.296	28028.02
509.51	28102.09
509.723	28170.17
509.936	28248.28
510.149	28330.71
510.363	28420.13
510.576	28512.29
510.789	28606.48
511.002	28702.18
511.215	28797.78
511.428	28894.95
511.641	28991.51
511.854	29096.49
512.067	29197.11
512.28	29305.73
512.493	29407.71
512.707	29516.64
512.92	29615.49
513.132	29713.89
513.345	29811.89
513.558	29923.22
513.771	30031.86
513.984	30134.24
514.197	30239.89
514.41	30354.04
514.623	30456.18
514.836	30575.33
515.049	30674.77
515.262	30780.57
515.474	30884.73
515.687	30990.44
515.9	31091.51
516.113	31191.11
516.325	31295.18
516.538	31383.51
516.751	31478.64
516.964	31574.11
517.176	31649.91
517.389	31735.58
517.602	31825.49
517.814	31906.86
518.027	32001.64
518.24	32079.86
518.452	32158.95
518.665	32233.69
518.877	32322
519.09	32395.02
519.303	32467.68
519.515	32546.37
519.728	32614.8
519.94	32676.51
520.153	32754.77
520.365	32809.37
520.578	32881.09
520.79	32942.88
521.002	33011.84
521.215	33069.44
521.427	33129.26
521.64	33182.04
521.852	33226.53
522.064	33280.55
522.277	33341.53
522.489	33394.58
522.701	33441.2
522.914	33487.46
523.126	33536.68
523.338	33573.15
523.551	33623.64
523.763	33664.84
523.975	33709.28
524.187	33766.48
524.399	33825.09
524.612	33871.29
524.824	33921.11
525.036	33970.26
525.248	34014.82
525.46	34054.22
525.672	34104.73
525.884	34142.84
526.096	34190.62
526.308	34234.2
526.521	34269.95
526.733	34299.73
526.945	34327.17
527.157	34347.69
527.369	34380.98
527.581	34405.89
527.793	34438.57
528.004	34469.02
528.216	34496.71
528.428	34521.57
528.64	34538.42
528.852	34566.22
529.064	34596.26
529.276	34629.48
529.488	34661.95
529.699	34693.35
529.911	34727.31
530.123	34752.17
530.335	34773.51
530.547	34803.31
530.758	34842.11
530.97	34886.82
531.182	34919.48
531.393	34957.37
531.605	34992.98
531.817	35027.2
532.029	35062.57
532.24	35096.6
532.452	35134.89
532.663	35162.91
532.875	35186.93
533.087	35208.57
533.298	35229.69
533.51	35252.73
533.721	35262.57
533.933	35281.69
534.144	35293.48
534.356	35312.53
534.567	35335.22
534.779	35339.69
534.99	35363.8
535.202	35388.2
535.413	35412.51
535.624	35439.02
535.836	35459.75
536.047	35490.38
536.259	35498.69
536.47	35518.42
536.681	35532.78
536.893	35543.15
537.104	35565.53
537.315	35579
537.526	35593.95
537.738	35597.95
537.949	35608.82
538.16	35628.97
538.371	35644.02
538.582	35666.33
538.794	35684.24
539.005	35694.48
539.216	35706.6
539.427	35731.28
539.638	35753.89
539.849	35765.73
540.06	35781.2
540.272	35796.97
540.483	35809.51
540.694	35823.98
540.905	35835.13
541.116	35850.29
541.327	35882.62
541.538	35909.04
541.749	35927.64
541.96	35934.51
542.17	35951.88
542.381	35967.33
542.592	35973.44
542.803	35978.09
543.014	35980.6
543.225	35990.18
543.436	35992.42
543.647	35983.95
543.857	35986.11
544.068	35993.42
544.279	36014.35
544.49	36022.84
544.701	36042.97
544.911	36048.97
545.122	36068.26
545.333	36090.75
545.543	36106.86
545.754	36128.78
545.965	36140.37
546.175	36145.97
546.386	36144.4
546.597	36148.31
546.807	36156.24
547.018	36164.33
547.229	36184.91
547.439	36181.09
547.65	36180.82
547.86	36191.18
548.071	36190.29
548.281	36205.73
548.492	36212.17
548.702	36225.66
548.913	36228.55
549.123	36235.49
549.333	36232.86
549.544	36240.11
549.754	36255.75
549.965	36269.31
550.175	36266.82
550.385	36288.77
550.596	36295.91
550.806	36310.2
551.016	36320.35
551.227	36330.6
551.437	36347.73
551.647	36365.66
551.857	36372.18
552.068	36376.33
552.278	36388.06
552.488	36405.31
552.698	36411.44
552.908	36417.77
553.119	36417.49
553.329	36426.75
553.539	36428.69
553.749	36420.42
553.959	36422.53
554.169	36428.98
554.379	36436.35
554.589	36421.24
554.799	36425.42
555.009	36423.66
555.219	36427.09
555.429	36444.73
555.639	36448.75
555.849	36456.06
556.059	36465.73
556.269	36462.58
556.479	36465.53
556.689	36465.24
556.899	36478.82
557.109	36481.82
557.319	36488.75
557.528	36487.69
557.738	36479.4
557.948	36478.11
558.158	36478.42
558.368	36470.84
558.577	36464.33
558.787	36451
558.997	36444.26
559.207	36433.82
559.416	36427.66
559.626	36409.82
559.836	36403.91
560.045	36396.13
560.255	36380.78
560.465	36380.73
560.674	36389.31
560.884	36386.22
561.093	36385.2
561.303	36386.26
561.512	36386.49
561.722	36385.77
561.932	36383.93
562.141	36385.68
562.351	36381.15
562.56	36396.48
562.769	36390.77
562.979	36391.75
563.188	36391.46
563.398	36394.38
563.607	36397.88
563.817	36403.48
564.026	36398.48
564.235	36395.24
564.445	36395.18
564.654	36398.08
564.863	36387.04
565.073	36386.71
565.282	36370.29
565.491	36364.46
565.7	36355.11
565.91	36344.89
566.119	36330.15
566.328	36313.28
566.537	36299.06
566.746	36275.58
566.956	36267.31
567.165	36254.24
567.374	36249.35
567.583	36252.04
567.792	36246.91
568.001	36234.86
568.21	36216.2
568.419	36197.88
568.628	36178.2
568.837	36165.49
569.046	36142.49
569.255	36117.22
569.464	36089.95
569.673	36053.29
569.882	36014.68
570.091	35990.15
570.3	35976.28
570.509	35960.29
570.718	35948.84
570.927	35946.84
571.135	35942.09
571.344	35950.44
571.553	35944.29
571.762	35947.58
571.971	35948.37
572.18	35943.82
572.388	35937.15
572.597	35914.37
572.806	35907.57
573.014	35882.51
573.223	35860.71
573.432	35836.75
573.641	35808
573.849	35779.95
574.058	35750.02
574.266	35721.84
574.475	35709.35
574.684	35690.69
574.892	35691.82
575.101	35669.46
575.309	35673.17
575.518	35666.31
575.726	35654.48
575.935	35640.37
576.143	35636.28
576.352	35626.46
576.56	35615.28
576.769	35592.4
576.977	35576.58
577.186	35544.84
577.394	35525.62
577.602	35502.95
577.811	35483.98
578.019	35472.82
578.228	35467.31
578.436	35454.29
578.644	35439.69
578.852	35422.26
579.061	35409.57
579.269	35382.89
579.477	35370.35
579.685	35359.6
579.894	35340.15
580.102	35319.97
580.31	35300.08
580.518	35277.57
580.726	35264.42
580.935	35250.6
581.143	35226.73
581.351	35210.31
581.559	35199.93
581.767	35181.6
581.975	35153.22
582.183	35130.53
582.391	35112.91
582.599	35096.95
582.807	35061.89
583.015	35034.73
583.223	35008.2
583.431	35004.49
583.639	34978.46
583.847	34960.82
584.055	34939.17
584.263	34918.57
584.471	34903.26
584.678	34875.64
584.886	34854.44
585.094	34848.04
585.302	34820.77
585.51	34800.51
585.718	34777.28
585.925	34759.69
586.133	34734.37
586.341	34715.97
586.549	34705.58
586.756	34684.66
586.964	34671.78
587.172	34640.4
587.379	34612.29
587.587	34595.09
587.795	34572.84
588.002	34542.04
588.21	34524.17
588.417	34500.35
588.625	34473.29
588.833	34449.48
589.04	34422.42
589.248	34398.49
589.455	34389.84
589.663	34372.95
589.87	34359.42
590.078	34338.18
590.285	34317.8
590.492	34299.75
590.7	34283.53
590.907	34265.93
591.115	34235.18
591.322	34209.69
591.529	34184
591.737	34151.04
591.944	34125.86
592.151	34092.78
592.359	34070.82
592.566	34048.28
592.773	34011.13
592.981	33975.66
593.188	33943.78
593.395	33917.73
593.602	33892.35
593.809	33868.89
594.017	33842.58
594.224	33819.35
594.431	33794.69
594.638	33752.15
594.845	33722.77
595.052	33694.49
595.259	33678.35
595.466	33655.91
595.673	33633.88
595.88	33609.89
596.088	33588.55
596.295	33566.95
596.502	33540.24
596.709	33518.8
596.915	33507.78
597.122	33474.8
597.329	33460.17
597.536	33438.98
597.743	33425.62
597.95	33407.04
598.157	33375.6
598.364	33339.4
598.571	33303.38
598.777	33255.48
598.984	33202.49
599.191	33150.29
599.398	33107.75
599.605	33060.8
599.811	33006.06
600.018	32942.64
600.225	32887.2
600.431	32837.46
600.638	32796.82
600.845	32757.2
601.052	32732.44
601.258	32700.93
601.465	32664.53
601.671	32614.15
601.878	32543.8
602.085	32463.48
602.291	32370.28
602.498	32256.88
602.704	32124.17
602.911	31964
603.117	31784.91
603.324	31583.51
603.53	31364.06
603.737	31130.11
603.943	30888.8
604.15	30651.09
604.356	30399.82
604.562	30145.26
604.769	29890.68
604.975	29635.66
605.181	29374.98
605.388	29112.26
605.594	28854.24
605.8	28591.22
606.007	28332.73
606.213	28059.29
606.419	27779.26
606.625	27511.89
606.832	27242.53
607.038	26961.82
607.244	26687.93
607.45	26411.97
607.656	26132.66
607.863	25840.89
608.069	25562.06
608.275	25283.58
608.481	25018.75
608.687	24739.29
608.893	24454.18
609.099	24170.18
609.305	23890.48
609.511	23603.2
609.717	23314.73
609.923	23025.93
610.129	22738.04
610.335	22438.66
610.541	22130.82
610.747	21829.35
610.953	21533.88
611.159	21227.29
611.365	20912.37
611.571	20590.78
611.776	20269.08
611.982	19945.49
612.188	19622.75
612.394	19297.4
612.6	18975.84
612.806	18648.38
613.011	18319.84
613.217	17987.04
613.423	17661.04
613.628	17340.22
613.834	17032.26
614.04	16721.55
614.246	16417.11
614.451	16116.17
614.657	15824.58
614.862	15534.71
615.068	15254.69
615.274	14976.68
615.479	14706.69
615.685	14447.2
615.89	14190.44
616.096	13929.13
616.301	13668.09
616.507	13410.8
616.712	13146.77
616.918	12883.55
617.123	12616.57
617.329	12345.91
617.534	12069.95
617.74	11786.64
617.945	11500.91
618.15	11194.89
618.356	10720.75
618.561	9863.98
618.766	8821.13
618.972	7750.08
619.177	6701.93
619.382	5683.48
619.588	4691.84
619.793	4098.01
619.998	3406.9
620.203	2573.02
620.408	1569.74
620.614	587.37
