Data from test1_MAYP1115451__46__10-14-53-177.txt Node

Date: Wed Jun 12 10:14:53 MDT 2024
User: Modes Lab
Spectrometer: MAYP111545
Trigger mode: 0
Integration Time (sec): 8.000000E-3
Scans to average: 5
Electric dark correction enabled: true
Nonlinearity correction enabled: false
Boxcar width: 5
XAxis mode: Wavelengths
Number of Pixels in Spectrum: 2068
>>>>>Begin Spectral Data<<<<<
165.214	163.17
165.449	163.59
165.683	173.9
165.918	182.83
166.152	188.96
166.387	193.63
166.621	125.5
166.856	164.85
167.09	184.1
167.325	207.45
167.559	223.39
167.794	238.05
168.028	244.86
168.263	244.68
168.497	244.25
168.732	245.54
168.966	246.86
169.2	248.39
169.435	249.79
169.669	250.59
169.903	253.12
170.138	255.19
170.372	255.85
170.606	258.14
170.841	259.77
171.075	262.15
171.309	263.15
171.544	264.32
171.778	266.45
172.012	268.54
172.246	270.59
172.48	271.99
172.715	273.85
172.949	276.21
173.183	277.79
173.417	279.25
173.651	279.79
173.885	281.17
174.119	282.48
174.354	282.43
174.588	281.34
174.822	281.25
175.056	281.81
175.29	282.12
175.524	282.19
175.758	282.45
175.992	283.35
176.226	283.81
176.46	284.08
176.694	285.34
176.928	286.61
177.162	287.72
177.396	289.23
177.63	289.52
177.864	290.26
178.097	290.94
178.331	292.28
178.565	292.65
178.799	293.86
179.033	295.41
179.267	295.17
179.5	295.45
179.734	295.92
179.968	297.03
180.202	297.48
180.436	299.05
180.669	299.7
180.903	300.21
181.137	302.25
181.371	304.08
181.604	304.77
181.838	306.74
182.072	308.7
182.305	309.25
182.539	310.15
182.772	311.63
183.006	312.17
183.24	313.99
183.473	317.83
183.707	318.7
183.94	318.68
184.174	319.1
184.408	321.12
184.641	321.74
184.875	323.54
185.108	323.99
185.342	325.61
185.575	327.43
185.808	328.14
186.042	327.23
186.275	327.95
186.509	329.05
186.742	331.3
186.976	332.39
187.209	334.08
187.442	334.88
187.676	336.37
187.909	336.23
188.142	337.32
188.376	339.32
188.609	340.74
188.842	343.05
189.076	345.25
189.309	346.68
189.542	347.1
189.775	348.25
190.009	350.86
190.242	353.48
190.475	356.68
190.708	357.66
190.941	359.26
191.174	360.99
191.408	361.99
191.641	363.23
191.874	363.7
192.107	365.59
192.34	367.95
192.573	369.54
192.806	370.75
193.039	371.88
193.272	374.43
193.505	375.57
193.738	376.7
193.971	378.66
194.204	381.12
194.437	383.99
194.67	385.01
194.903	385.79
195.136	387.03
195.369	389.32
195.602	390.88
195.835	392.12
196.068	394.63
196.301	395.9
196.533	398.21
196.766	399.5
196.999	402.23
197.232	405.65
197.465	408.63
197.698	411.41
197.93	412.68
198.163	415.32
198.396	417.85
198.629	419.37
198.861	422.48
199.094	424.77
199.327	426.54
199.559	427.94
199.792	429.1
200.025	430.68
200.257	433.19
200.49	435.81
200.723	438.06
200.955	440.54
201.188	444.05
201.42	446.65
201.653	448.37
201.886	452.05
202.118	453.88
202.351	456.05
202.583	458.86
202.816	461.28
203.048	462.88
203.281	465.19
203.513	467.1
203.745	468.97
203.978	470.66
204.21	473.48
204.443	474.54
204.675	477.34
204.907	480.37
205.14	481.88
205.372	483.54
205.605	486.26
205.837	488.63
206.069	491.15
206.302	492.15
206.534	494.45
206.766	495.97
206.998	497.97
207.231	499.12
207.463	501.26
207.695	505.79
207.927	507.57
208.159	511.26
208.392	512.77
208.624	514.41
208.856	517.79
209.088	520.05
209.32	521.88
209.552	523.79
209.784	528.46
210.017	530.66
210.249	530.65
210.481	533.37
210.713	533.85
210.945	536.35
211.177	539.88
211.409	542.41
211.641	544.23
211.873	546.06
212.105	548.61
212.337	549.32
212.569	550.66
212.801	552.55
213.033	555.32
213.264	557.35
213.496	559.28
213.728	560.25
213.96	560.55
214.192	563.08
214.424	566.08
214.656	568.5
214.887	569.26
215.119	571.85
215.351	573.77
215.583	574.45
215.815	576.75
216.046	578.1
216.278	579.12
216.51	580.7
216.741	582.54
216.973	582.77
217.205	584.66
217.436	587.45
217.668	589.25
217.9	590.99
218.131	594.01
218.363	595.81
218.595	597.45
218.826	599.63
219.058	602.66
219.289	602.15
219.521	604.35
219.752	604.79
219.984	605.35
220.215	605.12
220.447	605.63
220.678	605.45
220.91	605.63
221.141	606.68
221.373	606.63
221.604	606.19
221.836	608.81
222.067	609.86
222.298	610.72
222.53	612.01
222.761	613.19
222.993	615.86
223.224	617.28
223.455	618.45
223.686	619.1
223.918	620.97
224.149	622.08
224.38	622.59
224.612	623.45
224.843	624.9
225.074	626.79
225.305	628.21
225.536	626.72
225.768	626.88
225.999	626.32
226.23	627.75
226.461	627.94
226.692	628.66
226.923	628.39
227.155	630.17
227.386	631.01
227.617	631.01
227.848	631.21
228.079	632.7
228.31	633.92
228.541	635.06
228.772	635.63
229.003	636.03
229.234	635.75
229.465	636.01
229.696	634.61
229.927	633.63
230.158	632.39
230.389	632.59
230.62	633.74
230.85	632.46
231.081	633.08
231.312	633.12
231.543	633.19
231.774	634.45
232.005	636.05
232.236	635.9
232.466	636.14
232.697	636.23
232.928	636.52
233.159	637.06
233.389	638.1
233.62	638.43
233.851	638.06
234.082	636.92
234.312	635.85
234.543	634.75
234.774	635.32
235.004	635.59
235.235	636.52
235.466	635.39
235.696	633.12
235.927	632.72
236.157	631.54
236.388	631.86
236.618	632.46
236.849	632.97
237.08	633.15
237.31	632.08
237.541	630.3
237.771	629.55
238.002	629.48
238.232	629.88
238.463	629.46
238.693	629.99
238.923	629.25
239.154	629.48
239.384	629.34
239.615	629.34
239.845	629.01
240.075	629.86
240.306	628.7
240.536	629.43
240.766	628.72
240.997	629.65
241.227	628.72
241.457	629.17
241.687	627.54
241.918	627.32
242.148	626.54
242.378	626.5
242.608	625.99
242.839	626.85
243.069	624.66
243.299	623.75
243.529	623.81
243.759	622.94
243.989	621.45
244.22	622.72
244.45	622.79
244.68	621.66
244.91	620.41
245.14	620.83
245.37	620.59
245.6	620.79
245.83	621.43
246.06	619.85
246.29	619.95
246.52	619.25
246.75	618.5
246.98	617.52
247.21	617.06
247.44	617.65
247.67	616.75
247.9	615.94
248.13	615.19
248.359	614.68
248.589	613.34
248.819	613.99
249.049	613.79
249.279	612.65
249.509	611.48
249.738	611.14
249.968	610.41
250.198	610.39
250.428	609.34
250.657	609.59
250.887	608.46
251.117	608.12
251.347	605.26
251.576	603.74
251.806	602.65
252.036	601.14
252.265	600.39
252.495	600.08
252.725	598.01
252.954	598.14
253.184	596.37
253.413	596.21
253.643	595.61
253.873	596.3
254.102	596.48
254.332	597.57
254.561	599.48
254.791	599.48
255.02	598.32
255.25	598.5
255.479	596.59
255.708	596.65
255.938	595.92
256.167	594.37
256.397	593.03
256.626	591.52
256.856	590.1
257.085	588.37
257.314	587.97
257.544	587.97
257.773	587.25
258.002	588.01
258.232	587.57
258.461	585.32
258.69	586.75
258.919	586.43
259.149	586.25
259.378	586.26
259.607	584.23
259.836	583.5
260.065	583.19
260.295	582.66
260.524	581.57
260.753	581.83
260.982	583.46
261.211	581.97
261.44	582.06
261.669	581.17
261.899	579.19
262.128	579.75
262.357	577.75
262.586	576.26
262.815	575.35
263.044	575.03
263.273	576.65
263.502	574.92
263.731	573.12
263.96	571.92
264.189	570.46
264.418	570.21
264.646	568.34
264.875	567.92
265.104	566.63
265.333	566.92
265.562	565.17
265.791	560.86
266.02	560.25
266.249	559.26
266.477	558.12
266.706	558.39
266.935	557.03
267.164	556.63
267.393	556.19
267.621	555.61
267.85	553.5
268.079	552.9
268.307	552.63
268.536	550.57
268.765	552.74
268.993	552.41
269.222	552.23
269.451	552.21
269.679	552.32
269.908	551.9
270.137	552.74
270.365	552.5
270.594	553.26
270.822	552.9
271.051	553.79
271.279	552.21
271.508	553.5
271.736	554.48
271.965	555.65
272.193	556.06
272.422	557.26
272.65	557.25
272.879	556.9
273.107	555.59
273.336	555.88
273.564	556.05
273.792	555.06
274.021	553.46
274.249	550.81
274.477	549.41
274.706	547.15
274.934	543.17
275.162	541.45
275.391	541.03
275.619	539.94
275.847	539.41
276.075	537.85
276.304	536.68
276.532	534.43
276.76	533.52
276.988	530.79
277.216	530.15
277.445	530.5
277.673	529.28
277.901	528.85
278.129	528.35
278.357	526.32
278.585	526.63
278.813	526.3
279.041	525.99
279.269	526.39
279.497	526.95
279.725	527.06
279.954	526.9
280.182	526.57
280.41	525.61
280.637	524.52
280.865	525.7
281.093	523.63
281.321	522.77
281.549	522.63
281.777	522.34
282.005	522.32
282.233	522.43
282.461	522.15
282.689	521.97
282.916	522.41
283.144	521.68
283.372	520.1
283.6	521.68
283.828	520.79
284.055	520.39
284.283	519.55
284.511	519.32
284.739	518.25
284.966	518.12
285.194	516.74
285.422	515.14
285.649	515.45
285.877	515.1
286.105	513.48
286.332	514.26
286.56	514.43
286.788	513.1
287.015	511.43
287.243	511.39
287.47	509.28
287.698	509.05
287.925	509.86
288.153	508.94
288.381	508.79
288.608	506.66
288.836	505.65
289.063	504.08
289.29	504.54
289.518	504.12
289.745	502.52
289.973	502.39
290.2	502.81
290.428	500.81
290.655	500.43
290.882	499.26
291.11	500.03
291.337	498.97
291.564	498.86
291.792	498.34
292.019	498.94
292.246	498.26
292.473	498.61
292.701	497.35
292.928	496.05
293.155	495.66
293.382	495.05
293.61	494.1
293.837	492.94
294.064	492.21
294.291	491.52
294.518	491.03
294.745	491.39
294.972	490.12
295.2	488.99
295.427	489.86
295.654	489.57
295.881	488.65
296.108	488.15
296.335	488.23
296.562	488.46
296.789	487.06
297.016	485.95
297.243	485.28
297.47	485.83
297.697	485.25
297.924	484.34
298.151	483.15
298.378	482.59
298.604	481.37
298.831	481.26
299.058	479.06
299.285	478.85
299.512	477.66
299.739	476.39
299.966	475.9
300.192	475.97
300.419	475.97
300.646	475.5
300.873	475.06
301.099	475.79
301.326	475.05
301.553	476.39
301.78	476.5
302.006	476.34
302.233	476.79
302.46	476.3
302.686	475.61
302.913	474.46
303.14	473.88
303.366	473.92
303.593	473.41
303.819	473.12
304.046	471.12
304.272	472.25
304.499	472.37
304.725	471.17
304.952	469.61
305.179	469.77
305.405	470.61
305.631	471.48
305.858	471.32
306.084	470.74
306.311	471.32
306.537	471.52
306.764	469.72
306.99	469.55
307.216	470.08
307.443	470.52
307.669	469.92
307.895	468.21
308.122	467.19
308.348	467.3
308.574	467.57
308.801	466.63
309.027	466.66
309.253	465.26
309.479	464.08
309.706	463.05
309.932	462.52
310.158	460.95
310.384	460.94
310.61	461.05
310.837	460.14
311.063	459.68
311.289	458.95
311.515	458.43
311.741	458.68
311.967	459.17
312.193	459.92
312.419	460.74
312.645	461.88
312.871	461.9
313.097	460.99
313.323	461.41
313.549	461.17
313.775	461.85
314.001	462.12
314.227	463.43
314.453	463.12
314.679	462.95
314.905	463.01
315.131	462.39
315.357	463.46
315.583	463.79
315.809	463.1
316.034	464.72
316.26	464.35
316.486	465.68
316.712	466.37
316.938	467.28
317.163	466.75
317.389	466.68
317.615	468.48
317.841	467.92
318.066	469.26
318.292	470.45
318.518	469.92
318.743	471.77
318.969	472.57
319.195	473.05
319.42	473.9
319.646	474.08
319.872	475.37
320.097	476.63
320.323	477.43
320.548	476.63
320.774	477.45
320.999	478.45
321.225	478.55
321.45	479.28
321.676	480.66
321.901	481.48
322.127	484.74
322.352	485.66
322.578	485.99
322.803	488.48
323.029	491.68
323.254	493.86
323.479	495.06
323.705	495.9
323.93	495.61
324.155	496.65
324.381	498.83
324.606	500.19
324.831	502.05
325.057	504.03
325.282	506.01
325.507	508.19
325.732	510.25
325.958	513.17
326.183	517.15
326.408	520.86
326.633	523.63
326.858	525.35
327.084	528.94
327.309	531.74
327.534	534.9
327.759	537.59
327.984	540.97
328.209	544.1
328.434	546.39
328.659	548.7
328.884	552.08
329.109	553.88
329.334	557.79
329.559	559.54
329.784	562.39
330.009	565.68
330.234	568.75
330.459	571.59
330.684	574.68
330.909	579.08
331.134	583.68
331.359	588.81
331.584	594.05
331.809	597.25
332.034	601.97
332.259	607.26
332.483	611.55
332.708	616.85
332.933	620.79
333.158	624.86
333.383	630.54
333.607	635.75
333.832	639.55
334.057	644.03
334.282	650.43
334.506	654.72
334.731	659.26
334.956	664.3
335.18	668.7
335.405	675.23
335.63	681.75
335.854	685.95
336.079	691.23
336.303	697.52
336.528	704.41
336.753	709.9
336.977	715.83
337.202	722.21
337.426	729.79
337.651	737.68
337.875	744.45
338.1	750.68
338.324	758.61
338.549	765.01
338.773	771.55
338.997	776.55
339.222	782.83
339.446	790.74
339.671	798.26
339.895	805.59
340.119	811.61
340.344	818.85
340.568	827.23
340.792	833.21
341.017	839.85
341.241	847.83
341.465	856.54
341.689	864.34
341.914	872.08
342.138	880.25
342.362	888.25
342.586	896.5
342.811	904.79
343.035	913.05
343.259	923.03
343.483	932.32
343.707	941.45
343.931	950.88
344.155	961.19
344.38	971.66
344.604	979.85
344.828	989.03
345.052	998.48
345.276	1008.1
345.5	1017.15
345.724	1026.81
345.948	1037.03
346.172	1046.94
346.396	1055.17
346.62	1065.52
346.844	1074.92
347.068	1085.37
347.292	1096.65
347.515	1107.48
347.739	1120.63
347.963	1129.63
348.187	1139.52
348.411	1151.06
348.635	1160.75
348.859	1172.3
349.082	1182.03
349.306	1191.9
349.53	1203.48
349.754	1213.08
349.977	1223.14
350.201	1231.43
350.425	1244.19
350.649	1255.43
350.872	1265.74
351.096	1275.19
351.32	1286.25
351.543	1298.59
351.767	1311.7
351.99	1323.7
352.214	1336.06
352.438	1348.19
352.661	1358.57
352.885	1369.14
353.108	1381.7
353.332	1392.34
353.555	1406.48
353.779	1417.21
354.002	1427.75
354.226	1438.28
354.449	1447.85
354.673	1457.03
354.896	1469.48
355.12	1482.9
355.343	1495.48
355.566	1506.14
355.79	1520.05
356.013	1531.21
356.237	1544.54
356.46	1557.66
356.683	1569.99
356.907	1584.26
357.13	1598.39
357.353	1610.9
357.576	1621.61
357.8	1635.03
358.023	1648.17
358.246	1659.9
358.469	1671.79
358.693	1685.14
358.916	1698.9
359.139	1712.52
359.362	1725.46
359.585	1739.25
359.808	1752.52
360.031	1765.7
360.255	1778.9
360.478	1791.59
360.701	1805.63
360.924	1820.25
361.147	1832.72
361.37	1846.26
361.593	1860.28
361.816	1873.34
362.039	1887.05
362.262	1901.48
362.485	1916.46
362.708	1928.19
362.931	1942.19
363.154	1955.94
363.377	1971.61
363.599	1985.7
363.822	1998.99
364.045	2013.97
364.268	2029.06
364.491	2042.32
364.714	2058.48
364.936	2073.19
365.159	2088.08
365.382	2102.95
365.605	2117.63
365.828	2134.25
366.05	2150.45
366.273	2165.63
366.496	2178.15
366.718	2194.1
366.941	2212.57
367.164	2226.5
367.386	2243.14
367.609	2260.83
367.832	2276.43
368.054	2292.65
368.277	2305.61
368.5	2322.46
368.722	2338.74
368.945	2355.43
369.167	2369.19
369.39	2383.68
369.612	2398.65
369.835	2415.14
370.057	2431.55
370.28	2449.26
370.502	2463.94
370.725	2483.45
370.947	2500.55
371.169	2518.94
371.392	2536.66
371.614	2556.14
371.837	2571.97
372.059	2589.32
372.281	2606.23
372.504	2624.41
372.726	2641.14
372.948	2662.32
373.171	2674.5
373.393	2692.86
373.615	2707.74
373.837	2728.52
374.06	2745.83
374.282	2765.15
374.504	2783.43
374.726	2799.15
374.948	2819.46
375.17	2839.19
375.393	2858.81
375.615	2881.34
375.837	2897.79
376.059	2917.35
376.281	2934.72
376.503	2954.12
376.725	2973.63
376.947	2993.99
377.169	3017.63
377.391	3036.85
377.613	3057.37
377.835	3078.77
378.057	3098.59
378.279	3123.52
378.501	3147.26
378.723	3170.7
378.945	3192.46
379.167	3216.43
379.389	3239.39
379.611	3263.26
379.833	3287.1
380.054	3308.97
380.276	3330.37
380.498	3355.85
380.72	3379.97
380.942	3402.79
381.163	3425.59
381.385	3451.86
381.607	3473.86
381.829	3496.83
382.05	3520.28
382.272	3543.55
382.494	3570.99
382.716	3594.65
382.937	3620.68
383.159	3645.23
383.381	3673.57
383.602	3699.77
383.824	3723.21
384.045	3753.75
384.267	3781.74
384.488	3809.19
384.71	3833.48
384.932	3857.23
385.153	3885.25
385.375	3909.97
385.596	3935.83
385.818	3962.19
386.039	3988.7
386.261	4021.66
386.482	4048.41
386.703	4076.45
386.925	4100.43
387.146	4130.39
387.368	4161.37
387.589	4192.55
387.81	4224.59
388.032	4256.43
388.253	4286.65
388.474	4318.05
388.696	4344.88
388.917	4374.17
389.138	4401.66
389.359	4435.05
389.581	4467.85
389.802	4499.99
390.023	4530.06
390.244	4558.23
390.465	4584.46
390.687	4610.99
390.908	4640.52
391.129	4670.92
391.35	4702.48
391.571	4737.72
391.792	4767.34
392.013	4797.25
392.234	4825.65
392.455	4853.32
392.677	4882.61
392.898	4918.01
393.119	4949.79
393.34	4983.9
393.561	5015.03
393.782	5044.86
394.003	5076.81
394.223	5108.63
394.444	5141.15
394.665	5178.17
394.886	5212.88
395.107	5251.37
395.328	5286.14
395.549	5320.32
395.77	5351.15
395.99	5389.72
396.211	5426.7
396.432	5457.86
396.653	5492.55
396.874	5525.74
397.094	5557.94
397.315	5593.72
397.536	5625.46
397.757	5656.68
397.977	5694.85
398.198	5731.3
398.419	5761.32
398.639	5794.48
398.86	5833.52
399.081	5869.14
399.301	5901.74
399.522	5935.65
399.742	5969.21
399.963	6006.66
400.184	6045.37
400.404	6079.85
400.625	6112.55
400.845	6151.54
401.066	6185.45
401.286	6216.57
401.507	6249.43
401.727	6289.05
401.948	6321.95
402.168	6359.12
402.388	6392.45
402.609	6425.72
402.829	6456.14
403.05	6492.92
403.27	6527.48
403.49	6562.05
403.711	6596.92
403.931	6633.45
404.151	6671.14
404.372	6707.9
404.592	6741.12
404.812	6776.48
405.032	6809.65
405.253	6849.32
405.473	6888.41
405.693	6922.72
405.913	6960.28
406.133	6996.48
406.353	7035.59
406.574	7067.81
406.794	7107.34
407.014	7147.1
407.234	7182.5
407.454	7218.95
407.674	7255.75
407.894	7292.32
408.114	7331.46
408.334	7369.63
408.554	7412.57
408.774	7447.83
408.994	7487.79
409.214	7527.94
409.434	7562.55
409.654	7603.81
409.874	7644.52
410.094	7684.81
410.314	7720.12
410.534	7757.83
410.754	7792.9
410.974	7828.12
411.193	7864.72
411.413	7900.39
411.633	7933.39
411.853	7975.68
412.073	8011.83
412.292	8048.05
412.512	8086.03
412.732	8127.35
412.952	8165.65
413.171	8212.1
413.391	8255.15
413.611	8297.9
413.831	8340.3
414.05	8388.86
414.27	8429.37
414.489	8474.5
414.709	8517.46
414.929	8556.99
415.148	8595.75
415.368	8636.48
415.587	8676.63
415.807	8715.26
416.026	8758.63
416.246	8802.59
416.465	8837.99
416.685	8879.72
416.904	8923.81
417.124	8967.97
417.343	9014.46
417.563	9062.03
417.782	9110.45
418.002	9156.19
418.221	9203.94
418.44	9251.77
418.66	9297.03
418.879	9345.06
419.098	9387.34
419.318	9431.05
419.537	9475.77
419.756	9516.59
419.976	9561.54
420.195	9599.03
420.414	9640.65
420.633	9683.65
420.853	9728.06
421.072	9768.06
421.291	9813.1
421.51	9854.72
421.729	9897.48
421.948	9945.03
422.168	9991.25
422.387	10036.81
422.606	10082.34
422.825	10127.25
423.044	10170.05
423.263	10214.75
423.482	10256.3
423.701	10299.43
423.92	10349.72
424.139	10394.19
424.358	10435.25
424.577	10483.19
424.796	10528.08
425.015	10577.3
425.234	10621.17
425.453	10665.79
425.672	10706.55
425.891	10755.03
426.11	10798.9
426.328	10840.86
426.547	10888.5
426.766	10934.19
426.985	10977.01
427.204	11020.68
427.422	11063.75
427.641	11110.37
427.86	11160.39
428.079	11208.55
428.297	11258.9
428.516	11304.9
428.735	11354.25
428.954	11404.28
429.172	11457.75
429.391	11508.17
429.61	11554.75
429.828	11606.95
430.047	11652.97
430.265	11699.63
430.484	11744.92
430.703	11787.81
430.921	11831.5
431.14	11876.95
431.358	11917.92
431.577	11961.52
431.795	12006.39
432.014	12052.05
432.232	12098.55
432.451	12148.72
432.669	12195.21
432.887	12240.34
433.106	12292.94
433.324	12345.3
433.543	12395.9
433.761	12440.17
433.979	12487.32
434.198	12534.5
434.416	12587.32
434.634	12638.55
434.853	12680.48
435.071	12730.34
435.289	12777.9
435.507	12819.74
435.726	12864.3
435.944	12905.52
436.162	12956.77
436.38	13000.15
436.598	13045.46
436.817	13087.68
437.035	13130.12
437.253	13178.61
437.471	13222.66
437.689	13273.95
437.907	13322.77
438.125	13372.7
438.343	13427.19
438.561	13476.41
438.78	13528.46
438.998	13579.97
439.216	13627.85
439.434	13677.63
439.652	13731.25
439.869	13782.57
440.087	13829.85
440.305	13881.86
440.523	13931.75
440.741	13979.9
440.959	14026.81
441.177	14076.85
441.395	14125.54
441.613	14178.37
441.831	14225.03
442.048	14267.05
442.266	14313.74
442.484	14359.3
442.702	14408.94
442.919	14457.5
443.137	14506.81
443.355	14553.43
443.573	14599.72
443.79	14648.54
444.008	14696.26
444.226	14744.97
444.443	14794.5
444.661	14842.06
444.879	14892.7
445.096	14935.61
445.314	14983.45
445.532	15029.83
445.749	15080.68
445.967	15130.46
446.184	15176.61
446.402	15216.79
446.619	15262.37
446.837	15308.35
447.054	15354.43
447.272	15404.34
447.489	15453.26
447.707	15496.97
447.924	15544.79
448.141	15594.05
448.359	15642.48
448.576	15693.25
448.794	15746.94
449.011	15797.59
449.228	15849.79
449.446	15897.99
449.663	15941.46
449.88	15990.34
450.098	16042.3
450.315	16090.74
450.532	16141.77
450.749	16184.55
450.967	16231.14
451.184	16281.81
451.401	16324.92
451.618	16376.54
451.835	16427.34
452.052	16483.48
452.27	16526.92
452.487	16579.65
452.704	16633.75
452.921	16673.66
453.138	16722.26
453.355	16770.3
453.572	16810.61
453.789	16860.17
454.006	16908.54
454.223	16956.06
454.44	16998.39
454.657	17052.28
454.874	17095.59
455.091	17138.88
455.308	17188.79
455.525	17237.85
455.742	17286.41
455.959	17339.68
456.176	17392.12
456.393	17439.66
456.609	17490.68
456.826	17548.03
457.043	17593.34
457.26	17641.34
457.477	17685.9
457.693	17737.17
457.91	17785.7
458.127	17825.34
458.344	17872.26
458.56	17912.79
458.777	17952.12
458.994	17987.57
459.21	18016.86
459.427	18057.94
459.644	18096.3
459.86	18130.63
460.077	18157.86
460.294	18187.95
460.51	18228.65
460.727	18261.32
460.943	18304.92
461.16	18339.41
461.376	18376.25
461.593	18414.39
461.809	18450.3
462.026	18481.92
462.242	18519.39
462.459	18566.95
462.675	18608.17
462.892	18646.41
463.108	18685.9
463.324	18716.28
463.541	18760.83
463.757	18807.23
463.974	18848.03
464.19	18890.97
464.406	18940.06
464.623	18992.26
464.839	19035.35
465.055	19082.57
465.271	19134.79
465.488	19181.61
465.704	19227.77
465.92	19272.61
466.136	19324.77
466.353	19374.46
466.569	19428.77
466.785	19485.63
467.001	19537.59
467.217	19586.03
467.433	19645.92
467.649	19697.01
467.865	19756.39
468.082	19824.97
468.298	19890.3
468.514	19947.72
468.73	20019.23
468.946	20075.85
469.162	20139.06
469.378	20206.86
469.594	20275.41
469.81	20336.88
470.026	20407.03
470.242	20474.54
470.457	20539.66
470.673	20603.32
470.889	20666.5
471.105	20733.25
471.321	20806.74
471.537	20874.34
471.753	20940.08
471.968	21012.88
472.184	21088.28
472.4	21155.75
472.616	21227.94
472.832	21298.15
473.047	21370.55
473.263	21444.5
473.479	21510.99
473.694	21587.99
473.91	21656.26
474.126	21728.43
474.341	21801.99
474.557	21875.03
474.773	21940.03
474.988	22008.75
475.204	22080.45
475.42	22154.94
475.635	22225.21
475.851	22301.5
476.066	22371.63
476.282	22439.17
476.497	22505.68
476.713	22571.3
476.928	22631.75
477.144	22708.26
477.359	22774.95
477.575	22840.74
477.79	22900.88
478.005	22970.37
478.221	23031.28
478.436	23090.7
478.651	23155.35
478.867	23222.12
479.082	23282.85
479.297	23339.81
479.513	23400.28
479.728	23452.79
479.943	23497.68
480.159	23549.43
480.374	23601.57
480.589	23652.85
480.804	23709.06
481.019	23757.54
481.235	23799.86
481.45	23845.21
481.665	23899.59
481.88	23945.54
482.095	24005.21
482.31	24062.61
482.525	24121.41
482.741	24170.15
482.956	24220.17
483.171	24259.75
483.386	24313.19
483.601	24361.79
483.816	24411.79
484.031	24454.85
484.246	24497.68
484.461	24535.3
484.676	24582.68
484.891	24621.65
485.105	24662.95
485.32	24705.81
485.535	24753.94
485.75	24791.35
485.965	24830.9
486.18	24879.3
486.395	24923.01
486.609	24965.26
486.824	25013.03
487.039	25050.46
487.254	25091.68
487.469	25130.57
487.683	25174.06
487.898	25205.55
488.113	25248.26
488.327	25291.77
488.542	25321.83
488.757	25361.25
488.972	25404.63
489.186	25437.86
489.401	25475.92
489.615	25511.68
489.83	25550.34
490.045	25582.86
490.259	25617.12
490.474	25651.37
490.688	25683.17
490.903	25713.72
491.117	25748.94
491.332	25782.43
491.546	25812.39
491.761	25836.68
491.975	25867.75
492.19	25890.54
492.404	25917.85
492.618	25951.14
492.833	25981.05
493.047	26014.46
493.262	26049.7
493.476	26070.92
493.69	26091.97
493.905	26118.57
494.119	26158.19
494.333	26186.46
494.547	26211.35
494.762	26238.21
494.976	26266.08
495.19	26292.88
495.404	26310.34
495.619	26332.7
495.833	26364.03
496.047	26377.28
496.261	26400.75
496.475	26411.19
496.689	26417.99
496.903	26434.06
497.117	26443.06
497.332	26439.12
497.546	26432.52
497.76	26424.54
497.974	26413.81
498.188	26400.77
498.402	26397.12
498.616	26383.75
498.83	26379.88
499.044	26373.9
499.258	26372.85
499.472	26368.12
499.685	26375.05
499.899	26376.92
500.113	26389.9
500.327	26407.41
500.541	26419.77
500.755	26434.81
500.969	26454.43
501.183	26466.19
501.396	26485.66
501.61	26499.68
501.824	26516.5
502.038	26544.25
502.251	26567.5
502.465	26584.86
502.679	26597.15
502.892	26614.39
503.106	26635.3
503.32	26656.37
503.533	26670.5
503.747	26698.34
503.961	26724.92
504.174	26746.12
504.388	26766.83
504.602	26793.77
504.815	26832.3
505.029	26873.43
505.242	26914.63
505.456	26963.59
505.669	27005.01
505.883	27063.61
506.096	27114.41
506.31	27162.59
506.523	27223.48
506.736	27278.23
506.95	27338.86
507.163	27397.77
507.377	27454.25
507.59	27511.35
507.803	27566.97
508.017	27622.45
508.23	27678.54
508.443	27740.65
508.657	27816.37
508.87	27885.7
509.083	27954.81
509.296	28028.94
509.51	28100.7
509.723	28188.39
509.936	28275.06
510.149	28360.03
510.363	28453.59
510.576	28545.3
510.789	28641.94
511.002	28723.92
511.215	28821.77
511.428	28917.65
511.641	29017.88
511.854	29117.57
512.067	29201.46
512.28	29305.81
512.493	29396.43
512.707	29493.37
512.92	29602.63
513.132	29697.35
513.345	29813.41
513.558	29914.59
513.771	30028.17
513.984	30132.97
514.197	30242.06
514.41	30363.95
514.623	30470.85
514.836	30584.55
515.049	30691.15
515.262	30791.08
515.474	30899.59
515.687	30995.08
515.9	31102.21
516.113	31193.3
516.325	31290.35
516.538	31387.63
516.751	31488.54
516.964	31573.9
517.176	31675.57
517.389	31764.3
517.602	31850.37
517.814	31938.99
518.027	32021.59
518.24	32100.65
518.452	32183.32
518.665	32263.41
518.877	32336.66
519.09	32405.81
519.303	32480.26
519.515	32545.34
519.728	32617.63
519.94	32691.9
520.153	32754.5
520.365	32822.37
520.578	32880.28
520.79	32945.63
521.002	33004.48
521.215	33073.72
521.427	33127.52
521.64	33182.12
521.852	33240.01
522.064	33295.61
522.277	33341.7
522.489	33401.9
522.701	33458.83
522.914	33510.74
523.126	33560.54
523.338	33612.5
523.551	33658.77
523.763	33701.54
523.975	33755.68
524.187	33806.75
524.399	33856.3
524.612	33909.1
524.824	33947.32
525.036	33988.06
525.248	34032.37
525.46	34080.25
525.672	34126.08
525.884	34162.5
526.096	34208.5
526.308	34246.86
526.521	34282.3
526.733	34309.68
526.945	34341.15
527.157	34370.68
527.369	34402.17
527.581	34437.88
527.793	34460.06
528.004	34480.59
528.216	34509.97
528.428	34535.88
528.64	34568.34
528.852	34600.41
529.064	34638.52
529.276	34665.54
529.488	34699.65
529.699	34725.15
529.911	34745.86
530.123	34781.26
530.335	34818.48
530.547	34847.68
530.758	34879.57
530.97	34893.17
531.182	34912.26
531.393	34947.99
531.605	34983.08
531.817	35017.86
532.029	35048.99
532.24	35092.63
532.452	35115.05
532.663	35131.85
532.875	35160.48
533.087	35189.35
533.298	35220.57
533.51	35243.19
533.721	35255.26
533.933	35274.65
534.144	35287.41
534.356	35303.9
534.567	35308.66
534.779	35330.59
534.99	35354.1
535.202	35375.19
535.413	35393.65
535.624	35418.75
535.836	35440.23
536.047	35466.54
536.259	35487.15
536.47	35503.45
536.681	35528.15
536.893	35554.37
537.104	35565.3
537.315	35583.26
537.526	35596.06
537.738	35611.08
537.949	35630.12
538.16	35643.79
538.371	35654.35
538.582	35662.66
538.794	35678.65
539.005	35694.34
539.216	35712.06
539.427	35740.25
539.638	35770.63
539.849	35789.55
540.06	35805.52
540.272	35813.12
540.483	35840.72
540.694	35864.21
540.905	35878.46
541.116	35902.28
541.327	35918.01
541.538	35923.03
541.749	35928.77
541.96	35931.06
542.17	35941.3
542.381	35953.74
542.592	35965.66
542.803	35974.06
543.014	35971.88
543.225	35981.72
543.436	35973.94
543.647	35974.15
543.857	35981.61
544.068	35992.52
544.279	35998.19
544.49	36012.48
544.701	36019.92
544.911	36031.97
545.122	36038.19
545.333	36052.94
545.543	36062.26
545.754	36084.97
545.965	36107.39
546.175	36119.85
546.386	36123.65
546.597	36142.97
546.807	36153.66
547.018	36165.34
547.229	36173.03
547.439	36185.46
547.65	36191.35
547.86	36202.77
548.071	36210.46
548.281	36210.9
548.492	36210.06
548.702	36225.3
548.913	36221.21
549.123	36222.95
549.333	36218.79
549.544	36226.03
549.754	36228.59
549.965	36231.32
550.175	36243.57
550.385	36253.19
550.596	36266.85
550.806	36297.34
551.016	36308.95
551.227	36324.35
551.437	36334.52
551.647	36355.52
551.857	36366.86
552.068	36381.01
552.278	36401.57
552.488	36411.79
552.698	36415.32
552.908	36423.21
553.119	36428.19
553.329	36429.28
553.539	36437.5
553.749	36444.19
553.959	36445.25
554.169	36452.3
554.379	36442.66
554.589	36445.59
554.799	36445.15
555.009	36456.83
555.219	36466.74
555.429	36474.45
555.639	36476.99
555.849	36476.79
556.059	36473.97
556.269	36473.17
556.479	36468.06
556.689	36470.41
556.899	36469.88
557.109	36482.66
557.319	36479.65
557.528	36471.95
557.738	36460.34
557.948	36456.75
558.158	36448.86
558.368	36443.32
558.577	36439.01
558.787	36436.32
558.997	36435.55
559.207	36431.68
559.416	36414.75
559.626	36410.95
559.836	36404.79
560.045	36401.61
560.255	36398.7
560.465	36399.85
560.674	36405.75
560.884	36407.1
561.093	36407.75
561.303	36414.95
561.512	36413.28
561.722	36406.97
561.932	36396.77
562.141	36396.46
562.351	36392.05
562.56	36392.5
562.769	36389.7
562.979	36387.39
563.188	36388.41
563.398	36387.06
563.607	36383.75
563.817	36379.34
564.026	36376.01
564.235	36373.77
564.445	36367.86
564.654	36365.28
564.863	36361.63
565.073	36366.72
565.282	36363.17
565.491	36352.65
565.7	36345.12
565.91	36331.48
566.119	36322.17
566.328	36323.46
566.537	36316.39
566.746	36309.05
566.956	36300.17
567.165	36291.46
567.374	36274.43
567.583	36254.57
567.792	36247.34
568.001	36233.25
568.21	36218.12
568.419	36200.14
568.628	36177.34
568.837	36158.12
569.046	36131.79
569.255	36111.35
569.464	36089.03
569.673	36058.55
569.882	36041.68
570.091	36006.26
570.3	35979.45
570.509	35958.97
570.718	35949.68
570.927	35937.99
571.135	35932.7
571.344	35936.88
571.553	35928.54
571.762	35923.39
571.971	35934.65
572.18	35928.06
572.388	35933.57
572.597	35929.12
572.806	35918.05
573.014	35898.85
573.223	35890.3
573.432	35860.17
573.641	35825.08
573.849	35802.08
574.058	35783.5
574.266	35752.14
574.475	35729.88
574.684	35706.17
574.892	35689.66
575.101	35685.41
575.309	35677.55
575.518	35657.34
575.726	35660.05
575.935	35656.9
576.143	35643.79
576.352	35625.43
576.56	35605.83
576.769	35593.85
576.977	35585.61
577.186	35578.61
577.394	35550.95
577.602	35531.35
577.811	35522.45
578.019	35493.55
578.228	35479.25
578.436	35473.7
578.644	35459.77
578.852	35446.65
579.061	35424.63
579.269	35400.14
579.477	35379.37
579.685	35364.05
579.894	35343.03
580.102	35315.85
580.31	35303.66
580.518	35275.99
580.726	35255.06
580.935	35237.25
581.143	35220.77
581.351	35195.85
581.559	35172.45
581.767	35157.28
581.975	35139.41
582.183	35123.74
582.391	35100.1
582.599	35074.34
582.807	35057.95
583.015	35033.39
583.223	35016.23
583.431	34988.23
583.639	34970.1
583.847	34955.12
584.055	34931.41
584.263	34915.85
584.471	34888.81
584.678	34873.34
584.886	34858.01
585.094	34835.88
585.302	34808.12
585.51	34784.03
585.718	34764.83
585.925	34756.15
586.133	34737.88
586.341	34707.19
586.549	34677.61
586.756	34661.63
586.964	34641.7
587.172	34620.77
587.379	34598.08
587.587	34586.15
587.795	34558.14
588.002	34542.99
588.21	34521.28
588.417	34492.94
588.625	34467.01
588.833	34443.41
589.04	34421.08
589.248	34403.35
589.455	34386.52
589.663	34371.99
589.87	34346.35
590.078	34328.54
590.285	34304.9
590.492	34270.35
590.7	34253.35
590.907	34234.59
591.115	34210.37
591.322	34180.74
591.529	34145.35
591.737	34121.25
591.944	34086.81
592.151	34060.1
592.359	34030.54
592.566	33998.37
592.773	33973.46
592.981	33949.95
593.188	33930.05
593.395	33910.54
593.602	33898.35
593.809	33876.74
594.017	33848.7
594.224	33824.01
594.431	33792.19
594.638	33765.92
594.845	33746.63
595.052	33720.65
595.259	33689.23
595.466	33660.81
595.673	33634.77
595.88	33608.19
596.088	33591.28
596.295	33559.34
596.502	33536.95
596.709	33524.15
596.915	33507.66
597.122	33482.34
597.329	33462.14
597.536	33448.48
597.743	33424.5
597.95	33397.63
598.157	33358.92
598.364	33318.7
598.571	33282.5
598.777	33245.81
598.984	33197.3
599.191	33143.43
599.398	33090.57
599.605	33039.37
599.811	32980.52
600.018	32923.54
600.225	32872.12
600.431	32825.14
600.638	32780.83
600.845	32754.28
601.052	32718.75
601.258	32687.74
601.465	32658.77
601.671	32613.43
601.878	32554.66
602.085	32481.23
602.291	32392.83
602.498	32283.28
602.704	32150.7
602.911	31992.12
603.117	31804.37
603.324	31612.5
603.53	31388.21
603.737	31145.19
603.943	30902.52
604.15	30651.85
604.356	30404.48
604.562	30150.77
604.769	29894.77
604.975	29636.19
605.181	29379.05
605.388	29116.61
605.594	28841.25
605.8	28579.81
606.007	28322.21
606.213	28063.01
606.419	27797.54
606.625	27519.08
606.832	27248.95
607.038	26973.28
607.244	26705.37
607.45	26432.75
607.656	26161.86
607.863	25883.63
608.069	25604.83
608.275	25323.66
608.481	25036.03
608.687	24756.66
608.893	24472.01
609.099	24189.14
609.305	23903.12
609.511	23615.9
609.717	23322.46
609.923	23028.72
610.129	22737.97
610.335	22434.9
610.541	22128.61
610.747	21827.63
610.953	21524.15
611.159	21216.37
611.365	20899.28
611.571	20582.83
611.776	20260.37
611.982	19945.65
612.188	19621.1
612.394	19296.5
612.6	18977.34
612.806	18658.14
613.011	18329.95
613.217	18004.03
613.423	17681.03
613.628	17361.61
613.834	17043.46
614.04	16730.57
614.246	16421.83
614.451	16118.74
614.657	15831.95
614.862	15539.63
615.068	15257.21
615.274	14981.48
615.479	14708.72
615.685	14446.43
615.89	14192.55
616.096	13937.06
616.301	13676.83
616.507	13413.81
616.712	13155.23
616.918	12884.81
617.123	12620.83
617.329	12349.14
617.534	12072.72
617.74	11792.01
617.945	11509.55
618.15	11205.99
618.356	10735.77
618.561	9874.77
618.766	8835.35
618.972	7760.57
619.177	6714.06
619.382	5694.57
619.588	4699.95
619.793	4110.2
619.998	3418.03
620.203	2584.53
620.408	1572.36
620.614	583
