Data from test1_MAYP1115451__93__10-15-08-799.txt Node

Date: Wed Jun 12 10:15:08 MDT 2024
User: Modes Lab
Spectrometer: MAYP111545
Trigger mode: 0
Integration Time (sec): 8.000000E-3
Scans to average: 5
Electric dark correction enabled: true
Nonlinearity correction enabled: false
Boxcar width: 5
XAxis mode: Wavelengths
Number of Pixels in Spectrum: 2068
>>>>>Begin Spectral Data<<<<<
165.214	162.97
165.449	163.56
165.683	172.4
165.918	180.77
166.152	186.82
166.387	191.34
166.621	123.68
166.856	162.28
167.09	181.5
167.325	204.39
167.559	221.65
167.794	235.77
168.028	242.55
168.263	244.28
168.497	244.45
168.732	245.77
168.966	247.39
169.2	248.34
169.435	249.61
169.669	250.75
169.903	252.99
170.138	253.65
170.372	254.46
170.606	256.61
170.841	257.77
171.075	259.5
171.309	261.39
171.544	262.9
171.778	263.75
172.012	265.94
172.246	267.17
172.48	268.79
172.715	271.08
172.949	273.65
173.183	276.57
173.417	278.32
173.651	280.17
173.885	281.03
174.119	281.66
174.354	282.63
174.588	281.9
174.822	283.1
175.056	283.01
175.29	282.97
175.524	282.59
175.758	282.12
175.992	281.94
176.226	282.14
176.46	282.35
176.694	283.3
176.928	285.63
177.162	287.32
177.396	288.86
177.63	289.68
177.864	290.28
178.097	291.52
178.331	291.61
178.565	293.3
178.799	293.41
179.033	294.3
179.267	295.97
179.5	296.15
179.734	296.92
179.968	296.5
180.202	297.68
180.436	298.21
180.669	298.86
180.903	300.48
181.137	300.85
181.371	302.3
181.604	303.5
181.838	303.74
182.072	304.5
182.305	305.3
182.539	306.72
182.772	307.97
183.006	309.23
183.24	310.46
183.473	313.7
183.707	314.35
183.94	316.55
184.174	317.23
184.408	318.39
184.641	319.28
184.875	320.95
185.108	322.08
185.342	323.37
185.575	325.05
185.808	325.35
186.042	323.48
186.275	324.83
186.509	324.28
186.742	326.92
186.976	327.48
187.209	329.28
187.442	331.46
187.676	332.32
187.909	333.12
188.142	335.01
188.376	337.99
188.609	340.08
188.842	342.05
189.076	344.35
189.309	344.1
189.542	345.79
189.775	347.48
190.009	348.7
190.242	351.35
190.475	352.88
190.708	354.26
190.941	356.01
191.174	357.21
191.408	358.57
191.641	360.7
191.874	363.23
192.107	366.3
192.34	368.46
192.573	369.5
192.806	371.3
193.039	373.35
193.272	375.17
193.505	376.94
193.738	379.28
193.971	381.46
194.204	383.7
194.437	385.55
194.67	386.05
194.903	386.37
195.136	387.61
195.369	389.68
195.602	391.35
195.835	393.48
196.068	396.1
196.301	398.03
196.533	400.3
196.766	401.12
196.999	403.25
197.232	405.83
197.465	408.59
197.698	411.48
197.93	413.46
198.163	414.9
198.396	417.35
198.629	418.17
198.861	419.9
199.094	420.88
199.327	424.34
199.559	425.45
199.792	427.08
200.025	428.85
200.257	431.3
200.49	433.21
200.723	436.75
200.955	438.25
201.188	441.17
201.42	443.12
201.653	446.43
201.886	447.23
202.118	449.7
202.351	451.1
202.583	454.39
202.816	456.37
203.048	459.59
203.281	461.46
203.513	463.26
203.745	465.74
203.978	468.5
204.21	470.48
204.443	473.59
204.675	476.9
204.907	481.05
205.14	482.39
205.372	484.63
205.605	485.28
205.837	487.35
206.069	490.08
206.302	491.57
206.534	494.15
206.766	496.45
206.998	498.86
207.231	500.79
207.463	503.35
207.695	506.77
207.927	508.66
208.159	511.15
208.392	513.19
208.624	516.06
208.856	516.88
209.088	518.48
209.32	520.61
209.552	521.94
209.784	524.21
210.017	525.92
210.249	527.06
210.481	529.5
210.713	531.81
210.945	533.85
211.177	535.21
211.409	539.03
211.641	541.21
211.873	543.01
212.105	544.19
212.337	545.83
212.569	546.85
212.801	548.63
213.033	550.14
213.264	551.39
213.496	553.81
213.728	555.52
213.96	557.52
214.192	560.17
214.424	563.37
214.656	567.32
214.887	568.88
215.119	571.03
215.351	572.48
215.583	575.21
215.815	578.61
216.046	579.28
216.278	581.14
216.51	581.77
216.741	581.37
216.973	581.43
217.205	581.97
217.436	584.08
217.668	587.12
217.9	588.66
218.131	589.39
218.363	588.94
218.595	591.72
218.826	593.85
219.058	595.66
219.289	597.59
219.521	599.12
219.752	600.32
219.984	601.88
220.215	601.52
220.447	604.14
220.678	605.32
220.91	608.57
221.141	607.86
221.373	608.1
221.604	609.83
221.836	611.43
222.067	612.99
222.298	614.43
222.53	616.08
222.761	617.19
222.993	617.94
223.224	619.7
223.455	619.59
223.686	621.25
223.918	622.95
224.149	624.43
224.38	625.88
224.612	626.1
224.843	625.72
225.074	626.39
225.305	628.03
225.536	628.46
225.768	627.61
225.999	629.03
226.23	630.08
226.461	630.63
226.692	629.66
226.923	629.25
227.155	632.39
227.386	633.32
227.617	632.39
227.848	633.37
228.079	634.66
228.31	636.08
228.541	635.14
228.772	635.65
229.003	635.9
229.234	637.77
229.465	638.41
229.696	635.5
229.927	636.74
230.158	638.01
230.389	635.83
230.62	634.26
230.85	634.86
231.081	635.85
231.312	635.81
231.543	636.35
231.774	634.5
232.005	634.39
232.236	634.54
232.466	633.14
232.697	631.85
232.928	633.05
233.159	634.05
233.389	632.65
233.62	632.12
233.851	632.3
234.082	631.45
234.312	631.68
234.543	632.55
234.774	632.25
235.004	634.23
235.235	635.21
235.466	635.05
235.696	635.12
235.927	635.99
236.157	636.61
236.388	636.15
236.618	635.88
236.849	636.01
237.08	635.19
237.31	636.17
237.541	633.74
237.771	633.12
238.002	632.03
238.232	631.3
238.463	631.92
238.693	631.85
238.923	632.19
239.154	631.63
239.384	632.21
239.615	630.83
239.845	630.08
240.075	631.06
240.306	630.59
240.536	630.83
240.766	630.21
240.997	628.46
241.227	627.5
241.457	626.26
241.687	624.79
241.918	624.85
242.148	625.35
242.378	624.34
242.608	622.39
242.839	621.85
243.069	620.85
243.299	620.45
243.529	621.74
243.759	620.92
243.989	620.32
244.22	621.43
244.45	620.21
244.68	620.65
244.91	620.79
245.14	621.08
245.37	620.72
245.6	621.15
245.83	620.41
246.06	618.52
246.29	618.81
246.52	618.12
246.75	618.66
246.98	617.55
247.21	615.92
247.44	615.86
247.67	615.26
247.9	614.41
248.13	613.19
248.359	613.52
248.589	612.45
248.819	610.85
249.049	611.45
249.279	609.77
249.509	610.15
249.738	609.61
249.968	608.97
250.198	608.77
250.428	608.1
250.657	608.34
250.887	608.01
251.117	607.23
251.347	606.99
251.576	605.32
251.806	604.94
252.036	604.25
252.265	603.46
252.495	602.03
252.725	602.01
252.954	602.23
253.184	601.81
253.413	599.95
253.643	600.12
253.873	599.46
254.102	599.3
254.332	597.88
254.561	595.9
254.791	595.88
255.02	595.7
255.25	594.92
255.479	593.59
255.708	592.88
255.938	592.52
256.167	592.03
256.397	590.21
256.626	588.85
256.856	589.08
257.085	589.17
257.314	588.46
257.544	587.68
257.773	586.35
258.002	585.72
258.232	584.95
258.461	584.94
258.69	584.88
258.919	584.63
259.149	584.52
259.378	582.55
259.607	581.94
259.836	581.77
260.065	581.05
260.295	579.95
260.524	579.39
260.753	578.75
260.982	576.94
261.211	577.75
261.44	577.65
261.669	576.48
261.899	576.65
262.128	576.43
262.357	574.79
262.586	574.83
262.815	574.34
263.044	574.34
263.273	576.39
263.502	575.68
263.731	572.05
263.96	571.03
264.189	571.63
264.418	569.55
264.646	568.55
264.875	567.28
265.104	565.41
265.333	565.57
265.562	563.79
265.791	559.14
266.02	558.3
266.249	558.08
266.477	557.54
266.706	555.28
266.935	555.61
267.164	554.66
267.393	554.14
267.621	553.92
267.85	552.99
268.079	553.37
268.307	552.81
268.536	552.01
268.765	550.97
268.993	550.41
269.222	551.25
269.451	551.03
269.679	550.68
269.908	551.99
270.137	551.19
270.365	550.95
270.594	549.86
270.822	549.95
271.051	551.01
271.279	551.97
271.508	552.25
271.736	552.34
271.965	553.06
272.193	553.46
272.422	553.3
272.65	554.3
272.879	553.94
273.107	553.25
273.336	553.7
273.564	551.97
273.792	550.88
274.021	549.85
274.249	548.37
274.477	546.39
274.706	544.06
274.934	541.54
275.162	539.35
275.391	538.25
275.619	536.74
275.847	535.08
276.075	535.52
276.304	533.79
276.532	531.99
276.76	531.74
276.988	531.28
277.216	531.99
277.445	530.94
277.673	530.14
277.901	530.08
278.129	529.95
278.357	529.45
278.585	527.63
278.813	528.05
279.041	528.68
279.269	528.34
279.497	528.26
279.725	526.61
279.954	528.34
280.182	527.17
280.41	526.45
280.637	526.75
280.865	526.28
281.093	526.57
281.321	526.45
281.549	526.37
281.777	525.28
282.005	523.66
282.233	523.19
282.461	521.25
282.689	521.46
282.916	520.9
283.144	519.99
283.372	519.68
283.6	518.85
283.828	517.08
284.055	515.46
284.283	513.97
284.511	513.45
284.739	513.32
284.966	512.55
285.194	512.46
285.422	511.48
285.649	510.23
285.877	508.7
286.105	507.61
286.332	507.32
286.56	508.37
286.788	507.85
287.015	508.17
287.243	507.72
287.47	507.48
287.698	507.12
287.925	506.59
288.153	506.99
288.381	507.34
288.608	506.99
288.836	506.21
289.063	503.81
289.29	503.48
289.518	502.97
289.745	502.59
289.973	501.5
290.2	501.61
290.428	500.7
290.655	499.28
290.882	498.15
291.11	498.12
291.337	498.21
291.564	497.95
291.792	498.43
292.019	497.65
292.246	496.52
292.473	496.66
292.701	495.72
292.928	495.63
293.155	495.61
293.382	495.75
293.61	494.54
293.837	492.48
294.064	491.63
294.291	490.14
294.518	489.14
294.745	488.17
294.972	486.01
295.2	484.35
295.427	484.25
295.654	484.14
295.881	484.12
296.108	484.15
296.335	484.37
296.562	484.43
296.789	483.88
297.016	483.59
297.243	483.63
297.47	484.66
297.697	484.05
297.924	482.74
298.151	481.43
298.378	479.9
298.604	480.77
298.831	480.65
299.058	479.34
299.285	479.7
299.512	477.9
299.739	478.19
299.966	476.77
300.192	477.52
300.419	477.34
300.646	477.59
300.873	476.32
301.099	474.12
301.326	473.39
301.553	473.03
301.78	472.77
302.006	472.45
302.233	470.57
302.46	470.59
302.686	470.5
302.913	469.81
303.14	469.32
303.366	470.01
303.593	468.65
303.819	469.14
304.046	468.72
304.272	467.72
304.499	468.28
304.725	469.48
304.952	468.9
305.179	467.61
305.405	467.92
305.631	466.19
305.858	465.81
306.084	466.28
306.311	465.92
306.537	466.54
306.764	466.88
306.99	466.94
307.216	466.3
307.443	466.25
307.669	466.85
307.895	465.35
308.122	466.41
308.348	466.3
308.574	466.41
308.801	465.48
309.027	465.5
309.253	464.95
309.479	464.65
309.706	464.08
309.932	464.14
310.158	462.83
310.384	463.35
310.61	463.34
310.837	462.57
311.063	463.37
311.289	463.7
311.515	463.83
311.741	463.23
311.967	463.39
312.193	463.23
312.419	462.7
312.645	462.39
312.871	462.17
313.097	460.79
313.323	460.99
313.549	460.5
313.775	460.65
314.001	461.17
314.227	461.35
314.453	461.59
314.679	462.46
314.905	463.75
315.131	465.37
315.357	465.66
315.583	466.34
315.809	466.46
316.034	465.79
316.26	465.79
316.486	465.81
316.712	466.15
316.938	465.32
317.163	465.12
317.389	465.06
317.615	465.03
317.841	465.65
318.066	467.23
318.292	467.55
318.518	467.81
318.743	467.61
318.969	468.26
319.195	468.61
319.42	469.79
319.646	470.25
319.872	471.55
320.097	471.83
320.323	472.92
320.548	473.68
320.774	475.52
320.999	478.08
321.225	480.35
321.45	481.55
321.676	483.21
321.901	484.23
322.127	486.12
322.352	486.88
322.578	488.86
322.803	489.66
323.029	490.99
323.254	492.19
323.479	494.48
323.705	495.14
323.93	497.19
324.155	499.63
324.381	501.92
324.606	503.32
324.831	505.05
325.057	506.61
325.282	509.41
325.507	511.65
325.732	514.41
325.958	515.45
326.183	518.48
326.408	518.48
326.633	522.08
326.858	525.01
327.084	527.32
327.309	529.28
327.534	531.79
327.759	534.21
327.984	537.06
328.209	539.5
328.434	544.66
328.659	547.14
328.884	551.23
329.109	552.15
329.334	556.25
329.559	559.75
329.784	563.68
330.009	567.14
330.234	570.06
330.459	573.68
330.684	577.26
330.909	579.01
331.134	583.37
331.359	587.35
331.584	591.88
331.809	594.35
332.034	597.05
332.259	601.1
332.483	605.85
332.708	609.86
332.933	615.92
333.158	620.15
333.383	625.28
333.607	629.05
333.832	634.48
334.057	639.46
334.282	645.92
334.506	651.92
334.731	657.94
334.956	662.26
335.18	669.74
335.405	673.88
335.63	680.17
335.854	686.5
336.079	692.97
336.303	698.86
336.528	705.86
336.753	709.48
336.977	715.85
337.202	722.03
337.426	729.32
337.651	734.68
337.875	740.61
338.1	746.79
338.324	751.86
338.549	759.72
338.773	768.1
338.997	774.34
339.222	782.68
339.446	790.25
339.671	797.37
339.895	805.28
340.119	812.77
340.344	821.19
340.568	829.32
340.792	837.45
341.017	844.25
341.241	851.61
341.465	859.35
341.689	866.55
341.914	873.94
342.138	881.25
342.362	887.94
342.586	896.37
342.811	903.9
343.035	911.55
343.259	919.81
343.483	928.95
343.707	937.59
343.931	947.79
344.155	956.72
344.38	966.23
344.604	977.94
344.828	988.74
345.052	997.66
345.276	1005.99
345.5	1016.17
345.724	1025.94
345.948	1036.61
346.172	1046.35
346.396	1054.55
346.62	1066.92
346.844	1077.75
347.068	1085.81
347.292	1095.9
347.515	1107.81
347.739	1120.99
347.963	1131.19
348.187	1142.23
348.411	1151.85
348.635	1159.61
348.859	1170.86
349.082	1180.79
349.306	1190.74
349.53	1201.59
349.754	1212.12
349.977	1221.15
350.201	1230.92
350.425	1242.7
350.649	1252.86
350.872	1262.81
351.096	1275.17
351.32	1284.72
351.543	1295.92
351.767	1307.52
351.99	1318.15
352.214	1330.45
352.438	1343.65
352.661	1354.39
352.885	1365.32
353.108	1375.74
353.332	1389.15
353.555	1400.52
353.779	1413.88
354.002	1425.43
354.226	1437.15
354.449	1451.01
354.673	1461.88
354.896	1474.1
355.12	1487.14
355.343	1497.9
355.566	1511.86
355.79	1521.52
356.013	1535.79
356.237	1549.19
356.46	1561.15
356.683	1574.19
356.907	1588.05
357.13	1602.55
357.353	1614.03
357.576	1626.5
357.8	1640.52
358.023	1652.63
358.246	1666.92
358.469	1679.55
358.693	1692.21
358.916	1705.46
359.139	1719.32
359.362	1729.85
359.585	1742.34
359.808	1756.01
360.031	1768.45
360.255	1781.26
360.478	1794.14
360.701	1808.06
360.924	1820.79
361.147	1832.92
361.37	1846.88
361.593	1857.94
361.816	1871.86
362.039	1886.77
362.262	1899.85
362.485	1915.68
362.708	1931.21
362.931	1945.65
363.154	1959.08
363.377	1972.39
363.599	1986.61
363.822	2000.72
364.045	2014.79
364.268	2029.85
364.491	2041.15
364.714	2054.75
364.936	2066.19
365.159	2080.39
365.382	2093.83
365.605	2109.52
365.828	2125.43
366.05	2140.55
366.273	2153.94
366.496	2170.06
366.718	2185.95
366.941	2203.5
367.164	2218.68
367.386	2236.5
367.609	2252.54
367.832	2268.41
368.054	2283.17
368.277	2298.17
368.5	2313.57
368.722	2331.75
368.945	2350.39
369.167	2365.37
369.39	2379.54
369.612	2396.14
369.835	2412.55
370.057	2427.97
370.28	2445.17
370.502	2460.88
370.725	2480.19
370.947	2497.88
371.169	2514.23
371.392	2530.28
371.614	2548.15
371.837	2567.01
372.059	2584.92
372.281	2601.9
372.504	2622.83
372.726	2642.85
372.948	2661.95
373.171	2676.85
373.393	2694.48
373.615	2711.48
373.837	2728.26
374.06	2744.65
374.282	2764.79
374.504	2783.03
374.726	2800.12
374.948	2815.99
375.17	2832.68
375.393	2852.74
375.615	2872.01
375.837	2890.54
376.059	2913.43
376.281	2935.28
376.503	2956.12
376.725	2972.39
376.947	2994.46
377.169	3016.59
377.391	3035.3
377.613	3058.52
377.835	3078.12
378.057	3100.88
378.279	3122.17
378.501	3141.95
378.723	3162.68
378.945	3185.65
379.167	3210.41
379.389	3231.43
379.611	3252.81
379.833	3277.72
380.054	3298.46
380.276	3321.41
380.498	3346.5
380.72	3372.72
380.942	3395.75
381.163	3418.39
381.385	3444.25
381.607	3468.83
381.829	3494.57
382.05	3524.01
382.272	3549.01
382.494	3576.05
382.716	3602.15
382.937	3624.48
383.159	3649.21
383.381	3677.28
383.602	3704.12
383.824	3726.59
384.045	3749.74
384.267	3775.81
384.488	3802.15
384.71	3830.01
384.932	3855.19
385.153	3880.86
385.375	3912.19
385.596	3941.01
385.818	3965.61
386.039	3993.43
386.261	4024.28
386.482	4053.5
386.703	4080.65
386.925	4105.66
387.146	4133.14
387.368	4163.06
387.589	4194.95
387.81	4218.92
388.032	4246.65
388.253	4276.5
388.474	4307.99
388.696	4336.45
388.917	4366.75
389.138	4397.94
389.359	4427.95
389.581	4458.06
389.802	4488.54
390.023	4516.12
390.244	4545.15
390.465	4573.32
390.687	4604.66
390.908	4636.15
391.129	4666.15
391.35	4699.17
391.571	4730.01
391.792	4762.1
392.013	4794.48
392.234	4825.25
392.455	4860.86
392.677	4899.12
392.898	4932.03
393.119	4964.72
393.34	4997.19
393.561	5032.23
393.782	5060.7
394.003	5092.68
394.223	5123.61
394.444	5156.41
394.665	5191.19
394.886	5220.06
395.107	5251.05
395.328	5288.85
395.549	5323.5
395.77	5355.68
395.99	5388.66
396.211	5427.88
396.432	5462.23
396.653	5493.35
396.874	5526.48
397.094	5563.72
397.315	5595.59
397.536	5635.5
397.757	5666.5
397.977	5698.41
398.198	5730.83
398.419	5764.41
398.639	5797.85
398.86	5830.57
399.081	5872.14
399.301	5905.52
399.522	5934.81
399.742	5971.59
399.963	6000.28
400.184	6038.37
400.404	6079.35
400.625	6114.9
400.845	6150.01
401.066	6182.03
401.286	6217.17
401.507	6250.77
401.727	6287.3
401.948	6326.55
402.168	6363.68
402.388	6400.23
402.609	6433.65
402.829	6467.75
403.05	6502.95
403.27	6539.95
403.49	6578.75
403.711	6615.26
403.931	6650.99
404.151	6684.46
404.372	6715.92
404.592	6751.77
404.812	6787.52
405.032	6818.77
405.253	6853.43
405.473	6890.12
405.693	6927.75
405.913	6964.99
406.133	7001.26
406.353	7039.66
406.574	7076.61
406.794	7116.54
407.014	7154.75
407.234	7193.74
407.454	7233.52
407.674	7263.66
407.894	7299.37
408.114	7338.17
408.334	7371.26
408.554	7413.05
408.774	7444.28
408.994	7483.17
409.214	7521.05
409.434	7558.74
409.654	7592.37
409.874	7631.72
410.094	7677.3
410.314	7716.57
410.534	7752.41
410.754	7792.45
410.974	7828.25
411.193	7867.06
411.413	7908.55
411.633	7943.43
411.853	7977.45
412.073	8018.65
412.292	8056.23
412.512	8089.99
412.732	8131.57
412.952	8164.1
413.171	8203.83
413.391	8241.21
413.611	8286.74
413.831	8326.63
414.05	8373.08
414.27	8418.83
414.489	8459.37
414.709	8502.01
414.929	8546.55
415.148	8584.86
415.368	8632.63
415.587	8677.32
415.807	8722.05
416.026	8762.26
416.246	8805.48
416.465	8843.74
416.685	8884.88
416.904	8926.86
417.124	8968.83
417.343	9013.12
417.563	9058.99
417.782	9103.86
418.002	9145.46
418.221	9191.57
418.44	9238.59
418.66	9280.34
418.879	9323.5
419.098	9368.15
419.318	9415.03
419.537	9461.55
419.756	9503.65
419.976	9546.37
420.195	9588.03
420.414	9632.99
420.633	9676.19
420.853	9718.81
421.072	9767.03
421.291	9807.57
421.51	9852.39
421.729	9893.01
421.948	9933.72
422.168	9980.15
422.387	10023.05
422.606	10065.85
422.825	10107.81
423.044	10147.88
423.263	10187.92
423.482	10226.26
423.701	10271.99
423.92	10317.17
424.139	10364.43
424.358	10410.74
424.577	10451.52
424.796	10496.68
425.015	10543.35
425.234	10588.21
425.453	10633.19
425.672	10682.21
425.891	10728.5
426.11	10781.3
426.328	10825.35
426.547	10869.81
426.766	10913.23
426.985	10956.55
427.204	11008.43
427.422	11058.81
427.641	11105.26
427.86	11154.83
428.079	11205.01
428.297	11256.61
428.516	11299.17
428.735	11348.7
428.954	11399.1
429.172	11451.08
429.391	11506.75
429.61	11548.9
429.828	11594.95
430.047	11644.08
430.265	11691.37
430.484	11732.03
430.703	11773.94
430.921	11823.75
431.14	11870.15
431.358	11916.21
431.577	11962.05
431.795	12006.45
432.014	12053.66
432.232	12099.81
432.451	12148.83
432.669	12196.25
432.887	12246.14
433.106	12302.25
433.324	12346.03
433.543	12391.92
433.761	12441.57
433.979	12488.54
434.198	12538.1
434.416	12590.12
434.634	12640.52
434.853	12684.55
435.071	12732.32
435.289	12779.77
435.507	12819.41
435.726	12866.19
435.944	12906.7
436.162	12950.43
436.38	12996.21
436.598	13039.68
436.817	13083.79
437.035	13127.63
437.253	13176.39
437.471	13226.92
437.689	13272.17
437.907	13324.55
438.125	13374.14
438.343	13427.74
438.561	13475.61
438.78	13522.25
438.998	13568.74
439.216	13618.65
439.434	13663.77
439.652	13713.54
439.869	13758.75
440.087	13808.26
440.305	13854.17
440.523	13905.88
440.741	13952.19
440.959	14000.23
441.177	14050.94
441.395	14105.88
441.613	14148.03
441.831	14193.59
442.048	14235.86
442.266	14281.59
442.484	14337.15
442.702	14386.23
442.919	14435.94
443.137	14489.15
443.355	14542.52
443.573	14592.08
443.79	14637.21
444.008	14696.54
444.226	14748.23
444.443	14800.41
444.661	14848.41
444.879	14889.85
445.096	14938.21
445.314	14990.35
445.532	15042.19
445.749	15089.25
445.967	15138.94
446.184	15188.03
446.402	15229.7
446.619	15275.28
446.837	15328.05
447.054	15372.43
447.272	15420.17
447.489	15464.26
447.707	15507.25
447.924	15549.75
448.141	15596.37
448.359	15647.12
448.576	15696.83
448.794	15742.32
449.011	15796.17
449.228	15838.94
449.446	15889.21
449.663	15940.79
449.88	15995.17
450.098	16040.25
450.315	16092.94
450.532	16140.54
450.749	16185.94
450.967	16234.68
451.184	16283.23
451.401	16329.57
451.618	16380.77
451.835	16434.66
452.052	16481.95
452.27	16528.35
452.487	16578.23
452.704	16624.55
452.921	16679.21
453.138	16724.23
453.355	16765.5
453.572	16813.43
453.789	16866.99
454.006	16917.25
454.223	16966.08
454.44	17011.15
454.657	17055.94
454.874	17103.94
455.091	17152.48
455.308	17193.7
455.525	17246.55
455.742	17294.46
455.959	17343.39
456.176	17389.05
456.393	17436.25
456.609	17483.48
456.826	17535.72
457.043	17585.52
457.26	17630.12
457.477	17674.79
457.693	17715.74
457.91	17760.39
458.127	17810.99
458.344	17853.19
458.56	17892.5
458.777	17927.57
458.994	17964.99
459.21	17998.79
459.427	18034.94
459.644	18072.94
459.86	18110.14
460.077	18143.72
460.294	18173.14
460.51	18209.01
460.727	18251.05
460.943	18288.26
461.16	18325.12
461.376	18358.06
461.593	18394.03
461.809	18430.95
462.026	18468.63
462.242	18510.1
462.459	18559.77
462.675	18604.55
462.892	18644.79
463.108	18679.39
463.324	18725.46
463.541	18768.34
463.757	18812.63
463.974	18857.21
464.19	18904.01
464.406	18956.23
464.623	19000.06
464.839	19042.23
465.055	19087.92
465.271	19129.83
465.488	19185.23
465.704	19229.54
465.92	19286.57
466.136	19341.88
466.353	19391.79
466.569	19437.94
466.785	19493.23
467.001	19540.88
467.217	19599.15
467.433	19654.52
467.649	19716.63
467.865	19766.39
468.082	19824.72
468.298	19885.23
468.514	19940.52
468.73	20003.86
468.946	20074.43
469.162	20133.72
469.378	20202.9
469.594	20266.85
469.81	20332.65
470.026	20399.23
470.242	20465.37
470.457	20520.9
470.673	20585.25
470.889	20650.79
471.105	20712.61
471.321	20776.14
471.537	20840.05
471.753	20904.12
471.968	20965.83
472.184	21036.15
472.4	21107.79
472.616	21186.97
472.832	21270.52
473.047	21334.85
473.263	21407.63
473.479	21487.88
473.694	21561.03
473.91	21632.9
474.126	21704.85
474.341	21787.08
474.557	21859.81
474.773	21924.1
474.988	21989.81
475.204	22067.68
475.42	22146.94
475.635	22227.08
475.851	22299.65
476.066	22369.26
476.282	22443.65
476.497	22514.57
476.713	22584.48
476.928	22654.3
477.144	22728.7
477.359	22800.97
477.575	22858.83
477.79	22922.05
478.005	22983.57
478.221	23042.68
478.436	23113.59
478.651	23167.74
478.867	23227.97
479.082	23285.12
479.297	23345.39
479.513	23393.57
479.728	23441.79
479.943	23489.1
480.159	23534.15
480.374	23587.54
480.589	23641.72
480.804	23682.66
481.019	23733.48
481.235	23784.66
481.45	23829.21
481.665	23871.75
481.88	23932.34
482.095	23989.68
482.31	24052.83
482.525	24111.01
482.741	24163.99
482.956	24207.95
483.171	24262.15
483.386	24312.99
483.601	24355.95
483.816	24401.28
484.031	24451.7
484.246	24484.34
484.461	24529.65
484.676	24566.99
484.891	24610.92
485.105	24641.12
485.32	24688.12
485.535	24729.03
485.75	24772.5
485.965	24820.19
486.18	24869.26
486.395	24910.17
486.609	24965.25
486.824	25007.06
487.039	25055.85
487.254	25090.05
487.469	25139.77
487.683	25180.41
487.898	25219.26
488.113	25260.39
488.327	25296.23
488.542	25337.54
488.757	25371.46
488.972	25406.01
489.186	25436.57
489.401	25459.06
489.615	25495.19
489.83	25531.9
490.045	25571.75
490.259	25603.34
490.474	25635.19
490.688	25672.75
490.903	25694.08
491.117	25727.85
491.332	25756.75
491.546	25792.3
491.761	25832.46
491.975	25865.94
492.19	25890.45
492.404	25912.59
492.618	25941.54
492.833	25974.25
493.047	26004.61
493.262	26032.86
493.476	26058.9
493.69	26080.81
493.905	26109.15
494.119	26144.59
494.333	26178.61
494.547	26209.39
494.762	26240.3
494.976	26276.35
495.19	26299.75
495.404	26333.61
495.619	26364.66
495.833	26389.41
496.047	26419.99
496.261	26436.79
496.475	26448.39
496.689	26454.77
496.903	26464.03
497.117	26475.86
497.332	26465.88
497.546	26464.03
497.76	26441.17
497.974	26434.83
498.188	26426.86
498.402	26406.08
498.616	26394.17
498.83	26383.15
499.044	26375.52
499.258	26370.46
499.472	26362.3
499.685	26375.7
499.899	26382.85
500.113	26394.83
500.327	26401.17
500.541	26416.17
500.755	26441.57
500.969	26460.14
501.183	26474.57
501.396	26491.45
501.61	26516.26
501.824	26538.83
502.038	26553.7
502.251	26568.97
502.465	26591.95
502.679	26620.25
502.892	26635.55
503.106	26648.46
503.32	26670.43
503.533	26693.06
503.747	26718.26
503.961	26736.17
504.174	26754.01
504.388	26779.06
504.602	26810.32
504.815	26845.65
505.029	26878.28
505.242	26935.45
505.456	26989.06
505.669	27032.75
505.883	27090.35
506.096	27142.15
506.31	27200.25
506.523	27256.68
506.736	27314.75
506.95	27365.37
507.163	27424.08
507.377	27475.63
507.59	27519.88
507.803	27578.86
508.017	27641.39
508.23	27694.48
508.443	27756.25
508.657	27812.81
508.87	27891.59
509.083	27958.85
509.296	28038.57
509.51	28114.21
509.723	28194.01
509.936	28280.72
510.149	28363.66
510.363	28442.63
510.576	28532.61
510.789	28621.25
511.002	28724.68
511.215	28810.88
511.428	28906.92
511.641	29007.28
511.854	29101.26
512.067	29197.14
512.28	29294.52
512.493	29391.41
512.707	29501.23
512.92	29596.66
513.132	29698.9
513.345	29799.65
513.558	29896.79
513.771	30009.34
513.984	30115.28
514.197	30224.37
514.41	30344.57
514.623	30455.37
514.836	30562.35
515.049	30673.05
515.262	30791.32
515.474	30906.9
515.687	31004.55
515.9	31116.3
516.113	31209.06
516.325	31312.1
516.538	31404.01
516.751	31487.88
516.964	31575.43
517.176	31673.05
517.389	31754.72
517.602	31837.01
517.814	31920.41
518.027	32007.75
518.24	32079.75
518.452	32159.97
518.665	32227.65
518.877	32321.12
519.09	32403.72
519.303	32474.48
519.515	32549.55
519.728	32616.26
519.94	32680.66
520.153	32739.25
520.365	32797.32
520.578	32875.12
520.79	32946.21
521.002	33017.59
521.215	33067.05
521.427	33127.08
521.64	33194.41
521.852	33239.68
522.064	33301.94
522.277	33357.01
522.489	33413.94
522.701	33474.75
522.914	33531.35
523.126	33579.72
523.338	33622.59
523.551	33669.3
523.763	33718.39
523.975	33755.75
524.187	33801.59
524.399	33840.14
524.612	33895.39
524.824	33938.59
525.036	33986.95
525.248	34027.17
525.46	34069.43
525.672	34113.85
525.884	34156.92
526.096	34191.3
526.308	34227.68
526.521	34266.14
526.733	34303.68
526.945	34330.35
527.157	34368.03
527.369	34396.41
527.581	34422.94
527.793	34451.95
528.004	34478.92
528.216	34505.63
528.428	34532.99
528.64	34574.95
528.852	34604.7
529.064	34637.94
529.276	34658.55
529.488	34684.54
529.699	34706.83
529.911	34727.54
530.123	34761.77
530.335	34787.81
530.547	34828.01
530.758	34858.43
530.97	34888.5
531.182	34917.72
531.393	34945.88
531.605	34984.66
531.817	35018.81
532.029	35054.25
532.24	35102.86
532.452	35126.65
532.663	35156.5
532.875	35167.88
533.087	35189.23
533.298	35213.08
533.51	35239.9
533.721	35265.72
533.933	35279.74
534.144	35302.12
534.356	35322.41
534.567	35323.32
534.779	35342.54
534.99	35363.35
535.202	35391.66
535.413	35419.81
535.624	35436.65
535.836	35452.06
536.047	35475.75
536.259	35495.7
536.47	35503.75
536.681	35511.39
536.893	35530.61
537.104	35544.26
537.315	35562.99
537.526	35569.37
537.738	35581.66
537.949	35601.08
538.16	35620.94
538.371	35633.26
538.582	35655.63
538.794	35682.17
539.005	35704.79
539.216	35727.26
539.427	35753.37
539.638	35770.15
539.849	35785.3
540.06	35808.03
540.272	35822.26
540.483	35832.39
540.694	35845.34
540.905	35857.95
541.116	35879.15
541.327	35897.37
541.538	35905.52
541.749	35916.19
541.96	35921.79
542.17	35947.99
542.381	35957.54
542.592	35957.14
542.803	35968.25
543.014	35975.21
543.225	35974.26
543.436	35971.68
543.647	35982.01
543.857	35993.5
544.068	35992.5
544.279	36012.81
544.49	36013.94
544.701	36018.32
544.911	36039.5
545.122	36054.39
545.333	36063.77
545.543	36075.41
545.754	36087.85
545.965	36102.1
546.175	36111.83
546.386	36124.66
546.597	36129.75
546.807	36140.65
547.018	36153.5
547.229	36167.63
547.439	36168.75
547.65	36177.01
547.86	36191.55
548.071	36202.55
548.281	36194.43
548.492	36198.95
548.702	36207.97
548.913	36216.61
549.123	36225.54
549.333	36217.85
549.544	36210.97
549.754	36222.34
549.965	36241.25
550.175	36262.46
550.385	36272.25
550.596	36296.99
550.806	36318.55
551.016	36322.35
551.227	36341.17
551.437	36355.88
551.647	36378.97
551.857	36406.74
552.068	36420.75
552.278	36427.77
552.488	36428.75
552.698	36432.19
552.908	36435.5
553.119	36424.99
553.329	36439.03
553.539	36433.61
553.749	36433.17
553.959	36435.48
554.169	36419.94
554.379	36419.61
554.589	36415.74
554.799	36416.99
555.009	36427.21
555.219	36432.75
555.429	36441.25
555.639	36447.17
555.849	36448.9
556.059	36449.79
556.269	36449.65
556.479	36450.46
556.689	36454.48
556.899	36456.1
557.109	36467.12
557.319	36467.7
557.528	36470.7
557.738	36487.32
557.948	36479.77
558.158	36472.63
558.368	36471.15
558.577	36466.28
558.787	36468.25
558.997	36456.46
559.207	36453.14
559.416	36444.79
559.626	36427.46
559.836	36411.21
560.045	36392.23
560.255	36392.08
560.465	36393.41
560.674	36389.61
560.884	36398.66
561.093	36397.01
561.303	36394.77
561.512	36389.41
561.722	36382.92
561.932	36385.3
562.141	36379.39
562.351	36378.57
562.56	36379.83
562.769	36380.94
562.979	36380.79
563.188	36373.43
563.398	36375.39
563.607	36381.59
563.817	36391.35
564.026	36394.01
564.235	36394.23
564.445	36391.92
564.654	36382.65
564.863	36375.3
565.073	36365.17
565.282	36370.28
565.491	36372.14
565.7	36368.97
565.91	36359.77
566.119	36342.28
566.328	36329.43
566.537	36324.34
566.746	36320.01
566.956	36316.17
567.165	36300.75
567.374	36304.34
567.583	36284.19
567.792	36259.05
568.001	36234.08
568.21	36215.34
568.419	36188.43
568.628	36168.01
568.837	36135.57
569.046	36108.63
569.255	36080.77
569.464	36056.66
569.673	36017.41
569.882	36003.75
570.091	35984.9
570.3	35979.35
570.509	35967.97
570.718	35967.74
570.927	35957.72
571.135	35953.63
571.344	35961.26
571.553	35956.57
571.762	35954.15
571.971	35961.95
572.18	35949.37
572.388	35941.74
572.597	35920.06
572.806	35903.66
573.014	35880.75
573.223	35864.86
573.432	35849.94
573.641	35822.37
573.849	35805.34
574.058	35784.57
574.266	35751.01
574.475	35723.12
574.684	35708.45
574.892	35710.66
575.101	35706.19
575.309	35703.72
575.518	35695.65
575.726	35680.94
575.935	35669.08
576.143	35655.48
576.352	35643.63
576.56	35629.99
576.769	35627.43
576.977	35605.92
577.186	35571.94
577.394	35543.92
577.602	35524.12
577.811	35496.94
578.019	35478.52
578.228	35465.95
578.436	35451.15
578.644	35428.35
578.852	35407.72
579.061	35378.41
579.269	35361.83
579.477	35341.74
579.685	35331.85
579.894	35305.74
580.102	35286.32
580.31	35277.85
580.518	35250.06
580.726	35233.68
580.935	35219.25
581.143	35207.3
581.351	35187.77
581.559	35168.92
581.767	35156.52
581.975	35131.5
582.183	35129.43
582.391	35113.3
582.599	35089.25
582.807	35070.61
583.015	35047.81
583.223	35027.94
583.431	35015.72
583.639	34999.61
583.847	34985.1
584.055	34955.15
584.263	34933.45
584.471	34903.34
584.678	34883.15
584.886	34864.08
585.094	34855.45
585.302	34834.97
585.51	34812.01
585.718	34787.9
585.925	34763.03
586.133	34740.39
586.341	34725.94
586.549	34712.83
586.756	34697.99
586.964	34677.74
587.172	34642.57
587.379	34613.41
587.587	34596.1
587.795	34574.75
588.002	34539.25
588.21	34523.75
588.417	34500.65
588.625	34468.23
588.833	34436.12
589.04	34403.03
589.248	34381.45
589.455	34369.57
589.663	34351.28
589.87	34319.48
590.078	34306.79
590.285	34291.01
590.492	34272.05
590.7	34255.74
590.907	34236.06
591.115	34211.75
591.322	34194.68
591.529	34166.68
591.737	34145.35
591.944	34112.61
592.151	34095.65
592.359	34065.94
592.566	34042.97
592.773	34012.17
592.981	33971.79
593.188	33955.39
593.395	33931.19
593.602	33901.01
593.809	33870.79
594.017	33844.85
594.224	33824.03
594.431	33799.7
594.638	33770.39
594.845	33744.75
595.052	33711.01
595.259	33696.5
595.466	33657.39
595.673	33638.21
595.88	33619.65
596.088	33605.17
596.295	33572.97
596.502	33543.15
596.709	33516.95
596.915	33498.28
597.122	33470.83
597.329	33463.55
597.536	33440.77
597.743	33429.17
597.95	33401.15
598.157	33368.52
598.364	33334.17
598.571	33301.06
598.777	33261.39
598.984	33217.61
599.191	33165.52
599.398	33122.45
599.605	33064.48
599.811	33014.14
600.018	32954.17
600.225	32895.54
600.431	32841.57
600.638	32792.1
600.845	32757.34
601.052	32728.59
601.258	32686.26
601.465	32649.52
601.671	32597.74
601.878	32527.7
602.085	32444.39
602.291	32357.3
602.498	32254.25
602.704	32121.81
602.911	31975.85
603.117	31790.19
603.324	31587.59
603.53	31378.81
603.737	31139.7
603.943	30903.46
604.15	30663.26
604.356	30414.34
604.562	30164.25
604.769	29898.35
604.975	29639.61
605.181	29370.79
605.388	29116.83
605.594	28849.65
605.8	28575.28
606.007	28321.32
606.213	28052.43
606.419	27785.83
606.625	27510.46
606.832	27236.83
607.038	26961.5
607.244	26690.81
607.45	26418.57
607.656	26138.63
607.863	25860.57
608.069	25589.94
608.275	25307.68
608.481	25026.75
608.687	24743.59
608.893	24461.5
609.099	24173.74
609.305	23893.54
609.511	23602.35
609.717	23314.66
609.923	23017.12
610.129	22723.52
610.335	22426.26
610.541	22120.03
610.747	21813.15
610.953	21511.23
611.159	21202.74
611.365	20885.48
611.571	20573.46
611.776	20252.14
611.982	19934.12
612.188	19619.79
612.394	19296.1
612.6	18972.88
612.806	18651.48
613.011	18333.52
613.217	18005.3
613.423	17683.7
613.628	17366.19
613.834	17053.5
614.04	16748.43
614.246	16435.94
614.451	16129.74
614.657	15839.28
614.862	15552.52
615.068	15274.14
615.274	14993.3
615.479	14723.65
615.685	14461.75
615.89	14203.46
616.096	13937.28
616.301	13676.3
616.507	13417.81
616.712	13161.14
616.918	12895.1
617.123	12617.41
617.329	12344.39
617.534	12067.88
617.74	11788.19
617.945	11500.65
618.15	11201.08
618.356	10733.41
618.561	9872.7
618.766	8831.01
618.972	7753.21
619.177	6707.39
619.382	5691.7
619.588	4695.92
619.793	4104.42
619.998	3409.06
620.203	2580
620.408	1571.04
620.614	584.8
