Data from test1_MAYP1115451__4__10-14-39-060.txt Node

Date: Wed Jun 12 10:14:39 MDT 2024
User: Modes Lab
Spectrometer: MAYP111545
Trigger mode: 0
Integration Time (sec): 8.000000E-3
Scans to average: 5
Electric dark correction enabled: true
Nonlinearity correction enabled: false
Boxcar width: 5
XAxis mode: Wavelengths
Number of Pixels in Spectrum: 2068
>>>>>Begin Spectral Data<<<<<
165.214	164.77
165.449	164.93
165.683	174.58
165.918	183.27
166.152	189.29
166.387	194.62
166.621	126.5
166.856	164.39
167.09	184.3
167.325	207.92
167.559	224.48
167.794	238.37
168.028	246.3
168.263	247.21
168.497	246.39
168.732	248.3
168.966	249.35
169.2	250.66
169.435	252.62
169.669	252.5
169.903	253.06
170.138	254.55
170.372	256.12
170.606	256.9
170.841	257.84
171.075	260.02
171.309	261.04
171.544	261.99
171.778	264.02
172.012	265.37
172.246	268.17
172.48	269.84
172.715	272.41
172.949	274.35
173.183	276.66
173.417	277.73
173.651	279.21
173.885	280.52
174.119	280.97
174.354	281.12
174.588	281.81
174.822	281.73
175.056	282.22
175.29	281.88
175.524	281.66
175.758	282.44
175.992	284.17
176.226	285.06
176.46	285.35
176.694	286.59
176.928	287.41
177.162	288.26
177.396	288.44
177.63	290.1
177.864	290.33
178.097	291.33
178.331	291.44
178.565	291.92
178.799	293.04
179.033	293.75
179.267	294.93
179.5	295.61
179.734	296.84
179.968	299.93
180.202	300.41
180.436	301.82
180.669	302.92
180.903	303.52
181.137	304.12
181.371	304.33
181.604	305.26
181.838	306.93
182.072	308.59
182.305	309.66
182.539	308.08
182.772	309.02
183.006	310.92
183.24	312.1
183.473	315.42
183.707	316.62
183.94	317.06
184.174	317.57
184.408	318.26
184.641	319.75
184.875	321.13
185.108	324.79
185.342	326.99
185.575	327.82
185.808	328.61
186.042	328.04
186.275	329.22
186.509	330.72
186.742	332.79
186.976	333.66
187.209	334.62
187.442	336.13
187.676	335.57
187.909	335.95
188.142	336.12
188.376	337.53
188.609	338.84
188.842	340.7
189.076	342.46
189.309	343.77
189.542	344.93
189.775	346.97
190.009	348.66
190.242	351.26
190.475	352.06
190.708	355.12
190.941	357.33
191.174	358.72
191.408	360.53
191.641	362.33
191.874	363.97
192.107	366.59
192.34	367.39
192.573	369.33
192.806	370.82
193.039	373.06
193.272	375.28
193.505	376.24
193.738	378.17
193.971	380.08
194.204	381.77
194.437	383.41
194.67	384.52
194.903	386.68
195.136	386.73
195.369	389.17
195.602	391.53
195.835	393.24
196.068	395.08
196.301	396.01
196.533	397.57
196.766	397.77
196.999	399.42
197.232	401.33
197.465	403.01
197.698	405.92
197.93	407.37
198.163	409.12
198.396	411.37
198.629	414.72
198.861	418.1
199.094	420.12
199.327	423.64
199.559	427.04
199.792	429.77
200.025	432.1
200.257	434.62
200.49	437.21
200.723	439.52
200.955	440.04
201.188	441.37
201.42	444.13
201.653	446.01
201.886	449.7
202.118	450.22
202.351	452.13
202.583	454.39
202.816	456.37
203.048	457.39
203.281	459.52
203.513	462.22
203.745	465.39
203.978	466.79
204.21	469.33
204.443	471.19
204.675	473.37
204.907	476.9
205.14	480.21
205.372	482.64
205.605	486.12
205.837	488.86
206.069	491.68
206.302	492.17
206.534	494.97
206.766	497.99
206.998	499.01
207.231	502.57
207.463	503.86
207.695	505.64
207.927	507.12
208.159	510.48
208.392	512.37
208.624	516.19
208.856	519.57
209.088	521.41
209.32	522.39
209.552	524.99
209.784	527.13
210.017	528.93
210.249	530.46
210.481	533.41
210.713	534.35
210.945	537.08
211.177	537.24
211.409	538.84
211.641	540.79
211.873	542.92
212.105	545.08
212.337	546.08
212.569	548.37
212.801	550.93
213.033	552.72
213.264	554.48
213.496	555.32
213.728	557.88
213.96	559.1
214.192	560.79
214.424	563.32
214.656	565.7
214.887	568.64
215.119	571.5
215.351	573.77
215.583	576.99
215.815	578.13
216.046	580.81
216.278	582.02
216.51	584.12
216.741	586.19
216.973	587.82
217.205	588.79
217.436	590.15
217.668	592.35
217.9	593.86
218.131	593.12
218.363	594.99
218.595	595.99
218.826	596.92
219.058	599.24
219.289	599.86
219.521	599.75
219.752	600.32
219.984	601.15
220.215	600.06
220.447	600.68
220.678	601.72
220.91	603.04
221.141	604.19
221.373	604.68
221.604	605.82
221.836	608.12
222.067	610.13
222.298	612.55
222.53	614.01
222.761	616.15
222.993	617.48
223.224	619.79
223.455	620.62
223.686	620.99
223.918	623.1
224.149	623.48
224.38	624.13
224.612	625.75
224.843	627.21
225.074	628.06
225.305	628.28
225.536	629.26
225.768	629.7
225.999	629.57
226.23	631.12
226.461	631.12
226.692	632.33
226.923	632.21
227.155	634.41
227.386	633.33
227.617	633.5
227.848	633.42
228.079	633.04
228.31	632.95
228.541	633.35
228.772	633.5
229.003	633.79
229.234	633.33
229.465	634.73
229.696	631.33
229.927	631.84
230.158	631.93
230.389	632.21
230.62	632.42
230.85	633.12
231.081	632.84
231.312	633.21
231.543	634.99
231.774	634.53
232.005	634.06
232.236	635.81
232.466	636.66
232.697	637.57
232.928	637.7
233.159	638.33
233.389	640.13
233.62	640.41
233.851	639.99
234.082	639.5
234.312	640.99
234.543	640.01
234.774	639.75
235.004	640.77
235.235	640.61
235.466	640.08
235.696	638.15
235.927	637.08
236.157	637.13
236.388	638.1
236.618	637.93
236.849	636.39
237.08	638.5
237.31	637.55
237.541	633.9
237.771	633.12
238.002	634.22
238.232	634.08
238.463	632.12
238.693	632.13
238.923	631.02
239.154	629.12
239.384	629.61
239.615	626.52
239.845	626.3
240.075	628.01
240.306	627.06
240.536	625.55
240.766	626.46
240.997	626.75
241.227	626.55
241.457	625.22
241.687	625.52
241.918	625.55
242.148	625.7
242.378	625.62
242.608	624.77
242.839	625.17
243.069	624.22
243.299	622.19
243.529	623.52
243.759	623.12
243.989	623.52
244.22	623.37
244.45	622.42
244.68	623.19
244.91	622.62
245.14	622.26
245.37	621.39
245.6	620.32
245.83	621.08
246.06	619.5
246.29	619.35
246.52	618.59
246.75	617.82
246.98	616.99
247.21	616.55
247.44	617.26
247.67	616.06
247.9	614.59
248.13	615.61
248.359	615.33
248.589	613.9
248.819	613.01
249.049	611.33
249.279	609.95
249.509	608.84
249.738	607.75
249.968	606.46
250.198	606.22
250.428	606.1
250.657	604.7
250.887	604.01
251.117	603.37
251.347	603.01
251.576	604.02
251.806	603.72
252.036	603.79
252.265	603.46
252.495	602.61
252.725	601.84
252.954	602.41
253.184	600.77
253.413	599.72
253.643	601.28
253.873	600.82
254.102	598.53
254.332	599.06
254.561	597.97
254.791	596.22
255.02	596.57
255.25	595.32
255.479	594.68
255.708	595.72
255.938	595.22
256.167	591.75
256.397	590.92
256.626	591.64
256.856	589.95
257.085	590.26
257.314	589.92
257.544	589.01
257.773	589.5
258.002	588.53
258.232	587.41
258.461	586.46
258.69	585.88
258.919	584.9
259.149	583.68
259.378	582.77
259.607	581.75
259.836	581.21
260.065	580.61
260.295	580.13
260.524	580.61
260.753	581.5
260.982	581.28
261.211	581.32
261.44	581.79
261.669	581.84
261.899	582.15
262.128	581.22
262.357	581.08
262.586	580.32
262.815	579.19
263.044	576.55
263.273	577.95
263.502	577.21
263.731	575.93
263.96	574.17
264.189	572.95
264.418	571.92
264.646	571.61
264.875	569.15
265.104	567.41
265.333	566.66
265.562	565.66
265.791	562.41
266.02	561.3
266.249	560.02
266.477	559.04
266.706	557.3
266.935	556.92
267.164	555.24
267.393	554.72
267.621	553.99
267.85	552.9
268.079	553.08
268.307	551.37
268.536	550.53
268.765	551.72
268.993	551.3
269.222	551.86
269.451	551.9
269.679	551.59
269.908	552.73
270.137	551.92
270.365	553.04
270.594	552.68
270.822	553.04
271.051	554.01
271.279	553.19
271.508	554.19
271.736	555.68
271.965	554.84
272.193	555.39
272.422	555.75
272.65	557.88
272.879	557.1
273.107	557.24
273.336	556.66
273.564	556.68
273.792	555.59
274.021	553.33
274.249	551.41
274.477	550.35
274.706	548.37
274.934	546.37
275.162	543.79
275.391	542.17
275.619	540.41
275.847	539.44
276.075	537.39
276.304	536.35
276.532	535.3
276.76	532.53
276.988	529.95
277.216	530.55
277.445	529.66
277.673	528.04
277.901	527.46
278.129	527.62
278.357	526.81
278.585	526.04
278.813	525.55
279.041	525.26
279.269	526.01
279.497	527.84
279.725	526.57
279.954	526.33
280.182	526.02
280.41	526.52
280.637	525.22
280.865	523.68
281.093	524.28
281.321	524.3
281.549	523.62
281.777	523.17
282.005	521.81
282.233	521.82
282.461	521.81
282.689	521.62
282.916	520.46
283.144	520.19
283.372	521.48
283.6	520.3
283.828	518.3
284.055	517.88
284.283	517.37
284.511	516.79
284.739	515.93
284.966	514.5
285.194	513.97
285.422	513.92
285.649	513.53
285.877	510.93
286.105	510.84
286.332	513.02
286.56	512.06
286.788	510.61
287.015	510.15
287.243	508.86
287.47	508.57
287.698	507.12
287.925	506.32
288.153	505.13
288.381	506.79
288.608	505.64
288.836	502.75
289.063	502.41
289.29	503.37
289.518	502.88
289.745	503.3
289.973	502.19
290.2	502.79
290.428	501.92
290.655	501.46
290.882	500.02
291.11	499.48
291.337	499.95
291.564	500.21
291.792	498.32
292.019	497.77
292.246	496.88
292.473	496.5
292.701	495.64
292.928	494.75
293.155	494.37
293.382	494.1
293.61	493.08
293.837	492.35
294.064	491.33
294.291	491.08
294.518	490.86
294.745	490.26
294.972	490.04
295.2	490.39
295.427	490.01
295.654	489.99
295.881	488.92
296.108	488.13
296.335	487.75
296.562	486.46
296.789	486.33
297.016	485.9
297.243	484.44
297.47	484.15
297.697	482.55
297.924	480.84
298.151	479.79
298.378	479.9
298.604	479.15
298.831	479.01
299.058	479.42
299.285	480.28
299.512	479.21
299.739	479.06
299.966	477.88
300.192	476.64
300.419	477.13
300.646	476.5
300.873	475.77
301.099	476.06
301.326	474.24
301.553	473.62
301.78	473.3
302.006	473.32
302.233	472.62
302.46	472.22
302.686	472.64
302.913	472.15
303.14	471.42
303.366	470.39
303.593	468.72
303.819	468.79
304.046	467.64
304.272	466.41
304.499	466.22
304.725	466.42
304.952	465.28
305.179	464.57
305.405	464.52
305.631	463.75
305.858	463.61
306.084	463.44
306.311	462.84
306.537	462.66
306.764	461.84
306.99	461.44
307.216	460.79
307.443	460.62
307.669	460.61
307.895	460.64
308.122	460.22
308.348	459.81
308.574	460.26
308.801	460.79
309.027	461.46
309.253	460.92
309.479	461.68
309.706	462.12
309.932	462.33
310.158	462.81
310.384	461.64
310.61	462.75
310.837	463.62
311.063	463.7
311.289	463.48
311.515	462.37
311.741	461.75
311.967	460.35
312.193	460.79
312.419	462.35
312.645	461.72
312.871	462.15
313.097	462.21
313.323	462.44
313.549	462.62
313.775	463.33
314.001	464.95
314.227	465.97
314.453	466.84
314.679	466.15
314.905	464.35
315.131	464.61
315.357	465.26
315.583	465.02
315.809	463.9
316.034	464.93
316.26	465.32
316.486	465.95
316.712	466.32
316.938	466.33
317.163	466.86
317.389	468.9
317.615	469.81
317.841	471.1
318.066	473.19
318.292	474.68
318.518	474.3
318.743	473.7
318.969	474.1
319.195	473.82
319.42	472.73
319.646	474.53
319.872	474.48
320.097	475.32
320.323	474.08
320.548	475.08
320.774	476.37
320.999	477.44
321.225	478.13
321.45	478.13
321.676	481.01
321.901	482.32
322.127	482.86
322.352	485.28
322.578	486.59
322.803	488.97
323.029	490.1
323.254	491.28
323.479	493.04
323.705	494.52
323.93	495.9
324.155	498.06
324.381	500.28
324.606	502.26
324.831	503.57
325.057	506.28
325.282	509.26
325.507	510.13
325.732	512.39
325.958	514.52
326.183	517.48
326.408	519.59
326.633	522.37
326.858	525.52
327.084	527.28
327.309	529.19
327.534	531.68
327.759	533.95
327.984	537.66
328.209	540.41
328.434	544.79
328.659	547.08
328.884	550.77
329.109	551.66
329.334	554.08
329.559	557.97
329.784	561.81
330.009	564.46
330.234	566.68
330.459	568.64
330.684	572.53
330.909	575.82
331.134	580.59
331.359	584.32
331.584	588.88
331.809	594.62
332.034	598.44
332.259	601.64
332.483	605.81
332.708	612.1
332.933	617.42
333.158	621.52
333.383	624.57
333.607	631.13
333.832	636.75
334.057	642.04
334.282	646.1
334.506	652.79
334.731	659.5
334.956	665.86
335.18	670.01
335.405	674.77
335.63	680.42
335.854	686.19
336.079	689.92
336.303	697.12
336.528	702.81
336.753	710.55
336.977	714.97
337.202	722.5
337.426	728.35
337.651	735.21
337.875	742.84
338.1	749.21
338.324	757.04
338.549	764.15
338.773	771.02
338.997	777.88
339.222	783.75
339.446	792.06
339.671	798.26
339.895	806.32
340.119	814.04
340.344	822.33
340.568	831.39
340.792	838.12
341.017	845.72
341.241	851.57
341.465	860.1
341.689	868.46
341.914	875.97
342.138	883.97
342.362	893.66
342.586	902.32
342.811	909.95
343.035	917.97
343.259	927.35
343.483	937.35
343.707	947.33
343.931	956.88
344.155	966.61
344.38	977.04
344.604	986.84
344.828	994.12
345.052	1003.48
345.276	1011.33
345.5	1020.41
345.724	1028.82
345.948	1037.72
346.172	1048.37
346.396	1059.01
346.62	1068.97
346.844	1077.3
347.068	1085.12
347.292	1093.86
347.515	1104.99
347.739	1117.68
347.963	1127.99
348.187	1140.26
348.411	1150.82
348.635	1160.88
348.859	1169.62
349.082	1180.13
349.306	1190.79
349.53	1204.37
349.754	1216.62
349.977	1226.64
350.201	1236.06
350.425	1247.66
350.649	1258.79
350.872	1270.08
351.096	1280.64
351.32	1291.42
351.543	1302.01
351.767	1314.64
351.99	1325.13
352.214	1336.52
352.438	1346.5
352.661	1358.82
352.885	1370.35
353.108	1381.21
353.332	1393.24
353.555	1405.53
353.779	1418.12
354.002	1430.28
354.226	1442.5
354.449	1454.66
354.673	1467.44
354.896	1479.82
355.12	1491.06
355.343	1501.37
355.566	1513.93
355.79	1525.93
356.013	1539.08
356.237	1550.73
356.46	1562.55
356.683	1576.15
356.907	1587.13
357.13	1599.04
357.353	1612.97
357.576	1626.86
357.8	1639.97
358.023	1654.21
358.246	1666.9
358.469	1678.02
358.693	1690.66
358.916	1704.12
359.139	1714.1
359.362	1728.81
359.585	1741.21
359.808	1755.19
360.031	1766.7
360.255	1780.75
360.478	1792.04
360.701	1802.99
360.924	1816.84
361.147	1831.75
361.37	1846.61
361.593	1862.1
361.816	1872.59
362.039	1887.13
362.262	1898.77
362.485	1912.81
362.708	1926.48
362.931	1938.06
363.154	1954.55
363.377	1967.04
363.599	1978.48
363.822	1990.42
364.045	2002.97
364.268	2018.06
364.491	2031.59
364.714	2047.21
364.936	2062.15
365.159	2077.01
365.382	2093.88
365.605	2107.86
365.828	2126.5
366.05	2145.06
366.273	2160.68
366.496	2176.41
366.718	2193.35
366.941	2209.46
367.164	2225.81
367.386	2244.93
367.609	2262.13
367.832	2278.46
368.054	2296.72
368.277	2311.72
368.5	2326.79
368.722	2343.08
368.945	2359.88
369.167	2377.32
369.39	2394.35
369.612	2408.61
369.835	2421.26
370.057	2436.41
370.28	2454.42
370.502	2470.08
370.725	2486.12
370.947	2501.59
371.169	2518.46
371.392	2536.22
371.614	2551.86
371.837	2569.06
372.059	2586.32
372.281	2605.41
372.504	2623.95
372.726	2639.42
372.948	2658.13
373.171	2674.97
373.393	2694.7
373.615	2713.3
373.837	2732.28
374.06	2750.9
374.282	2769.52
374.504	2791.59
374.726	2811.33
374.948	2829.02
375.17	2848.93
375.393	2867.28
375.615	2887.19
375.837	2907.21
376.059	2926.06
376.281	2943.42
376.503	2963.12
376.725	2979.84
376.947	2997.21
377.169	3015.68
377.391	3037.3
377.613	3059.72
377.835	3079.15
378.057	3100.1
378.279	3118.55
378.501	3139.21
378.723	3162.17
378.945	3185.59
379.167	3209.61
379.389	3230.17
379.611	3252.88
379.833	3276.72
380.054	3298.79
380.276	3325.06
380.498	3347.92
380.72	3374.1
380.942	3398.3
381.163	3420.55
381.385	3443.02
381.607	3468.12
381.829	3494.84
382.05	3518.92
382.272	3540.64
382.494	3564.75
382.716	3587.21
382.937	3613.02
383.159	3637.84
383.381	3664.53
383.602	3693.35
383.824	3719.82
384.045	3745.44
384.267	3772.08
384.488	3801.01
384.71	3829.1
384.932	3856.79
385.153	3885.48
385.375	3912.93
385.596	3939.9
385.818	3966.95
386.039	3991.66
386.261	4019.22
386.482	4048.88
386.703	4076.37
386.925	4102.21
387.146	4131.44
387.368	4161.55
387.589	4187.75
387.81	4219.04
388.032	4249.13
388.253	4277.62
388.474	4309.21
388.696	4340.35
388.917	4371.7
389.138	4402.42
389.359	4432.86
389.581	4459.79
389.802	4489.5
390.023	4523.93
390.244	4550.55
390.465	4578.46
390.687	4608.77
390.908	4637.81
391.129	4669.95
391.35	4699.26
391.571	4730.44
391.792	4759.01
392.013	4791.95
392.234	4821.01
392.455	4851.97
392.677	4885.42
392.898	4922.46
393.119	4956.61
393.34	4990.86
393.561	5021.12
393.782	5054.59
394.003	5087.99
394.223	5124.04
394.444	5161.73
394.665	5197.99
394.886	5230.48
395.107	5264.7
395.328	5296.72
395.549	5329.93
395.77	5361.42
395.99	5397.39
396.211	5427.37
396.432	5458.53
396.653	5494.1
396.874	5525.55
397.094	5556.42
397.315	5588.22
397.536	5619.61
397.757	5652.86
397.977	5687.48
398.198	5725.15
398.419	5756.41
398.639	5792.95
398.86	5829.21
399.081	5864.53
399.301	5899.3
399.522	5933.61
399.742	5970.24
399.963	6008.5
400.184	6045.41
400.404	6080.13
400.625	6114.33
400.845	6154.21
401.066	6193.72
401.286	6229.84
401.507	6261.84
401.727	6296.1
401.948	6332.57
402.168	6369.06
402.388	6403.12
402.609	6435.41
402.829	6470.3
403.05	6506.48
403.27	6539.13
403.49	6570.92
403.711	6605.08
403.931	6643.97
404.151	6677.55
404.372	6709.24
404.592	6742.88
404.812	6777.66
405.032	6814.66
405.253	6853.72
405.473	6888.9
405.693	6921.1
405.913	6956.26
406.133	6995.21
406.353	7031.84
406.574	7072.13
406.794	7110.44
407.014	7150.26
407.234	7187.73
407.454	7221.97
407.674	7257.46
407.894	7291.66
408.114	7328.81
408.334	7366.73
408.554	7401.99
408.774	7438.08
408.994	7474.73
409.214	7513.9
409.434	7554.57
409.654	7592.21
409.874	7632.08
410.094	7667.84
410.314	7705.84
410.534	7746.3
410.754	7786.73
410.974	7827.1
411.193	7863.66
411.413	7905.79
411.633	7945.44
411.853	7979.72
412.073	8017.02
412.292	8057.75
412.512	8097.73
412.732	8138.5
412.952	8178.39
413.171	8216.48
413.391	8253.48
413.611	8292.86
413.831	8330.28
414.05	8372.12
414.27	8410.79
414.489	8457.22
414.709	8492.99
414.929	8538.28
415.148	8576.9
415.368	8619.12
415.587	8662.72
415.807	8707.79
416.026	8751.95
416.246	8798.68
416.465	8843.33
416.685	8894.99
416.904	8939.28
417.124	8984.26
417.343	9025.88
417.563	9073.68
417.782	9117.35
418.002	9160.62
418.221	9204.97
418.44	9250.22
418.66	9287.61
418.879	9328.35
419.098	9365.15
419.318	9407.92
419.537	9457.68
419.756	9504.44
419.976	9549.73
420.195	9589.99
420.414	9632.79
420.633	9676.42
420.853	9718.72
421.072	9761.93
421.291	9808.41
421.51	9851.22
421.729	9892.93
421.948	9934.68
422.168	9977.13
422.387	10019.62
422.606	10068.82
422.825	10113.75
423.044	10157.99
423.263	10203.92
423.482	10249.55
423.701	10293.79
423.92	10337.02
424.139	10382.39
424.358	10426.73
424.577	10471.5
424.796	10517.57
425.015	10561.81
425.234	10611.37
425.453	10657.82
425.672	10701.35
425.891	10750.1
426.11	10796.12
426.328	10848.72
426.547	10892.99
426.766	10939.24
426.985	10984.75
427.204	11029.15
427.422	11074.24
427.641	11115.82
427.86	11161.59
428.079	11210.7
428.297	11256.48
428.516	11303.37
428.735	11350.35
428.954	11403.13
429.172	11448.41
429.391	11498.06
429.61	11543.97
429.828	11592.15
430.047	11640.99
430.265	11686.97
430.484	11735.42
430.703	11781.82
430.921	11827.55
431.14	11874.17
431.358	11918.68
431.577	11964.79
431.795	12004.88
432.014	12058.26
432.232	12114.73
432.451	12163.24
432.669	12214.01
432.887	12264.02
433.106	12312.95
433.324	12361.08
433.543	12411.64
433.761	12456.66
433.979	12504.99
434.198	12560.41
434.416	12603.5
434.634	12644.68
434.853	12695.46
435.071	12741.13
435.289	12786.53
435.507	12832.55
435.726	12883.95
435.944	12923.93
436.162	12970.17
436.38	13017.44
436.598	13057.55
436.817	13108.19
437.035	13155.55
437.253	13202.17
437.471	13254.12
437.689	13300.21
437.907	13347.28
438.125	13392.9
438.343	13443.02
438.561	13491.7
438.78	13542.72
438.998	13598.48
439.216	13643.92
439.434	13683.88
439.652	13726.81
439.869	13767.37
440.087	13815.46
440.305	13868.24
440.523	13916.7
440.741	13966.37
440.959	14014.04
441.177	14068.77
441.395	14114.19
441.613	14169.02
441.831	14222.55
442.048	14272.13
442.266	14321.12
442.484	14371.21
442.702	14420.33
442.919	14468.9
443.137	14510.42
443.355	14561.61
443.573	14606.01
443.79	14651.3
444.008	14693.68
444.226	14745.72
444.443	14792.92
444.661	14843.41
444.879	14889.41
445.096	14933.1
445.314	14982.06
445.532	15038.81
445.749	15081.7
445.967	15127.39
446.184	15179.52
446.402	15223.22
446.619	15272.84
446.837	15324.92
447.054	15369.68
447.272	15421.5
447.489	15469.72
447.707	15516.97
447.924	15557.99
448.141	15612.66
448.359	15663.95
448.576	15710.32
448.794	15763.52
449.011	15811.99
449.228	15854.9
449.446	15904.92
449.663	15950.33
449.88	15995.64
450.098	16044.64
450.315	16093.62
450.532	16141.75
450.749	16186.46
450.967	16236.35
451.184	16284.01
451.401	16334.62
451.618	16389.46
451.835	16435.66
452.052	16487.22
452.27	16536.15
452.487	16578.75
452.704	16631.19
452.921	16678.82
453.138	16725.66
453.355	16775.19
453.572	16821.92
453.789	16865.53
454.006	16907.68
454.223	16955.5
454.44	16999.39
454.657	17048.95
454.874	17097.3
455.091	17143.81
455.308	17189.53
455.525	17241.13
455.742	17283.28
455.959	17337.32
456.176	17383.42
456.393	17435.44
456.609	17484.52
456.826	17535.62
457.043	17586.32
457.26	17629.73
457.477	17682.42
457.693	17727.52
457.91	17767.86
458.127	17817.57
458.344	17860.59
458.56	17900.77
458.777	17939.99
458.994	17980.17
459.21	18008.86
459.427	18041.08
459.644	18083.57
459.86	18102.93
460.077	18137.77
460.294	18175.81
460.51	18204.84
460.727	18232.28
460.943	18276.17
461.16	18312.48
461.376	18350.7
461.593	18392.9
461.809	18433.79
462.026	18475.59
462.242	18528.9
462.459	18574.33
462.675	18612.72
462.892	18654.75
463.108	18699.62
463.324	18736.41
463.541	18779.19
463.757	18822.12
463.974	18866.52
464.19	18914.62
464.406	18961.42
464.623	18999.53
464.839	19039.7
465.055	19089.64
465.271	19136.13
465.488	19185.17
465.704	19233.77
465.92	19281.32
466.136	19330.9
466.353	19380.66
466.569	19426.62
466.785	19475.48
467.001	19528.93
467.217	19581.66
467.433	19639.68
467.649	19704.06
467.865	19765.62
468.082	19826.53
468.298	19894.46
468.514	19957.86
468.73	20023.82
468.946	20093.19
469.162	20153.57
469.378	20225.92
469.594	20291.52
469.81	20355.19
470.026	20410.52
470.242	20466.19
470.457	20522.1
470.673	20576.72
470.889	20645.35
471.105	20711.32
471.321	20776.1
471.537	20848.55
471.753	20917.68
471.968	20991.41
472.184	21060.62
472.4	21143.28
472.616	21219.77
472.832	21301.73
473.047	21375.97
473.263	21441.53
473.479	21512.81
473.694	21585.99
473.91	21656.04
474.126	21721.84
474.341	21791.82
474.557	21859.04
474.773	21918.39
474.988	21988.66
475.204	22058.44
475.42	22140.68
475.635	22214.61
475.851	22286.35
476.066	22360.75
476.282	22424.06
476.497	22500.62
476.713	22569.95
476.928	22637.21
477.144	22706.99
477.359	22771.95
477.575	22841.75
477.79	22900.75
478.005	22961.97
478.221	23023.64
478.436	23082.46
478.651	23147.59
478.867	23203.62
479.082	23270.08
479.297	23327.3
479.513	23387.19
479.728	23442.33
479.943	23487.37
480.159	23538.57
480.374	23598.73
480.589	23649.52
480.804	23700.42
481.019	23758.26
481.235	23807.92
481.45	23857.15
481.665	23915.52
481.88	23967.35
482.095	24021.48
482.31	24079.64
482.525	24134.04
482.741	24179.19
482.956	24227.26
483.171	24275.04
483.386	24316.15
483.601	24360.93
483.816	24397.68
484.031	24434.44
484.246	24474.3
484.461	24517.15
484.676	24554.61
484.891	24601.84
485.105	24642.3
485.32	24690.32
485.535	24726.26
485.75	24774.93
485.965	24821.32
486.18	24867.42
486.395	24910.48
486.609	24959.24
486.824	25002.08
487.039	25047.95
487.254	25076.1
487.469	25118.42
487.683	25153.01
487.898	25199.53
488.113	25238.19
488.327	25275.33
488.542	25316.55
488.757	25358.88
488.972	25391.84
489.186	25424.04
489.401	25460.9
489.615	25498.95
489.83	25527.81
490.045	25562.26
490.259	25589.33
490.474	25619.08
490.688	25650.77
490.903	25680.12
491.117	25710.57
491.332	25738.02
491.546	25771.97
491.761	25801.37
491.975	25839.95
492.19	25884.41
492.404	25922.61
492.618	25959.19
492.833	25987.48
493.047	26019.61
493.262	26059.19
493.476	26086.57
493.69	26116.06
493.905	26146.66
494.119	26179.61
494.333	26206.97
494.547	26232.79
494.762	26260.57
494.976	26295.52
495.19	26324.55
495.404	26347.42
495.619	26363.44
495.833	26394.13
496.047	26423.32
496.261	26443.79
496.475	26453.68
496.689	26463.22
496.903	26465.62
497.117	26467.82
497.332	26461.52
497.546	26461.88
497.76	26457.26
497.974	26446.04
498.188	26439.82
498.402	26422.86
498.616	26412.88
498.83	26404.5
499.044	26398.04
499.258	26391.35
499.472	26385.52
499.685	26396.97
499.899	26396.44
500.113	26407.33
500.327	26426.37
500.541	26433.61
500.755	26458.32
500.969	26482.35
501.183	26502.21
501.396	26514.02
501.61	26542.3
501.824	26565.17
502.038	26579.86
502.251	26601.35
502.465	26625.59
502.679	26637.82
502.892	26652.22
503.106	26667.1
503.32	26678.01
503.533	26698.12
503.747	26725.26
503.961	26743.81
504.174	26773.39
504.388	26796.62
504.602	26830.7
504.815	26862.9
505.029	26908.61
505.242	26955.35
505.456	27004.7
505.669	27053.97
505.883	27105.68
506.096	27155.15
506.31	27213.68
506.523	27260.39
506.736	27312.19
506.95	27362.01
507.163	27410.5
507.377	27457.84
507.59	27508.64
507.803	27557.93
508.017	27614.84
508.23	27668.19
508.443	27732.32
508.657	27795.37
508.87	27861.95
509.083	27931.62
509.296	28006.02
509.51	28082.75
509.723	28160.35
509.936	28242.22
510.149	28335.08
510.363	28426.1
510.576	28521.95
510.789	28608.73
511.002	28704.39
511.215	28800.66
511.428	28903.48
511.641	28995.04
511.854	29096.41
512.067	29201.22
512.28	29316.08
512.493	29412.44
512.707	29508.86
512.92	29607.68
513.132	29718.46
513.345	29816.92
513.558	29927.62
513.771	30028.15
513.984	30148.44
514.197	30253.61
514.41	30359.92
514.623	30463.5
514.836	30566.79
515.049	30675.53
515.262	30789.19
515.474	30886.35
515.687	30990.17
515.9	31085.22
516.113	31185.32
516.325	31273.15
516.538	31369.02
516.751	31458.5
516.964	31547.26
517.176	31652.13
517.389	31742.88
517.602	31826.08
517.814	31918.15
518.027	32001.08
518.24	32093.5
518.452	32176.21
518.665	32257.28
518.877	32341.95
519.09	32423.44
519.303	32491.79
519.515	32545.39
519.728	32612.7
519.94	32679.13
520.153	32742.04
520.365	32801.99
520.578	32862.59
520.79	32927.53
521.002	32996.88
521.215	33056.82
521.427	33119.12
521.64	33178.28
521.852	33239.9
522.064	33291.42
522.277	33349.93
522.489	33398.66
522.701	33453.24
522.914	33503.48
523.126	33545.19
523.338	33591.13
523.551	33634.01
523.763	33682.06
523.975	33734.93
524.187	33783.55
524.399	33844.33
524.612	33889.48
524.824	33943.32
525.036	33993.93
525.248	34046.15
525.46	34098.9
525.672	34145.15
525.884	34186.68
526.096	34226.35
526.308	34263.04
526.521	34296.64
526.733	34323.24
526.945	34356.86
527.157	34392.68
527.369	34420.17
527.581	34441.26
527.793	34467.28
528.004	34488.06
528.216	34516.1
528.428	34547.13
528.64	34577.73
528.852	34612.13
529.064	34641.7
529.276	34667.62
529.488	34692.77
529.699	34720.75
529.911	34747.57
530.123	34772.86
530.335	34813.75
530.547	34843.92
530.758	34870.06
530.97	34898.06
531.182	34931.13
531.393	34964.48
531.605	35002.84
531.817	35033.35
532.029	35073.61
532.24	35108.21
532.452	35136.84
532.663	35161.57
532.875	35194.84
533.087	35221.41
533.298	35243.19
533.51	35258.55
533.721	35278.46
533.933	35293.12
534.144	35313.22
534.356	35319.33
534.567	35332.39
534.779	35354.72
534.99	35366.02
535.202	35376.66
535.413	35396.22
535.624	35413.66
535.836	35441.1
536.047	35460.44
536.259	35480.75
536.47	35499.41
536.681	35521.55
536.893	35537.9
537.104	35554.35
537.315	35570.93
537.526	35584.22
537.738	35601.06
537.949	35617.77
538.16	35628.68
538.371	35640.53
538.582	35657.66
538.794	35666.55
539.005	35677.72
539.216	35703.7
539.427	35720.81
539.638	35742.41
539.849	35769.66
540.06	35778.84
540.272	35807.84
540.483	35825.3
540.694	35843.22
540.905	35849.77
541.116	35871.73
541.327	35894.93
541.538	35899.97
541.749	35913.42
541.96	35922.48
542.17	35927.9
542.381	35939.73
542.592	35931.32
542.803	35940.53
543.014	35953.66
543.225	35962.52
543.436	35958.53
543.647	35961.61
543.857	35975.15
544.068	35985.46
544.279	35992.42
544.49	36001.33
544.701	36006.44
544.911	36026.79
545.122	36036.15
545.333	36050.42
545.543	36068.12
545.754	36091.5
545.965	36107.73
546.175	36112.35
546.386	36118.37
546.597	36131.59
546.807	36148.72
547.018	36166.15
547.229	36173.88
547.439	36180.33
547.65	36180.55
547.86	36180.28
548.071	36189.32
548.281	36190.13
548.492	36193.75
548.702	36206.35
548.913	36217.21
549.123	36211.48
549.333	36216.33
549.544	36219.06
549.754	36225.26
549.965	36236.46
550.175	36253.3
550.385	36279.86
550.596	36301.37
550.806	36313.46
551.016	36324.24
551.227	36335.1
551.437	36358.97
551.647	36381.97
551.857	36397.64
552.068	36418.01
552.278	36426.57
552.488	36431.84
552.698	36418.19
552.908	36424.55
553.119	36441.39
553.329	36445.04
553.539	36453.48
553.749	36451.99
553.959	36448.26
554.169	36450.52
554.379	36448.7
554.589	36449.95
554.799	36463.72
555.009	36480.46
555.219	36478.15
555.429	36476.19
555.639	36480.46
555.849	36478.21
556.059	36479.59
556.269	36478.3
556.479	36474.66
556.689	36475.82
556.899	36479.37
557.109	36474.02
557.319	36462.37
557.528	36460.77
557.738	36468.12
557.948	36471.52
558.158	36459.5
558.368	36456.35
558.577	36452.62
558.787	36452.75
558.997	36446.48
559.207	36436.17
559.416	36425.79
559.626	36414.3
559.836	36413.9
560.045	36400.9
560.255	36393.82
560.465	36396.77
560.674	36401.72
560.884	36404.5
561.093	36403.55
561.303	36399.72
561.512	36398.82
561.722	36400.12
561.932	36394.84
562.141	36388.55
562.351	36381.99
562.56	36372.92
562.769	36378.64
562.979	36374.99
563.188	36370.37
563.398	36376.52
563.607	36379.95
563.817	36383.52
564.026	36383.77
564.235	36391.9
564.445	36394.79
564.654	36407.08
564.863	36409.24
565.073	36396.99
565.282	36389.24
565.491	36377.62
565.7	36366.26
565.91	36360.73
566.119	36349.61
566.328	36329.52
566.537	36315.02
566.746	36304.13
566.956	36287.22
567.165	36280.48
567.374	36277.86
567.583	36267.7
567.792	36262.84
568.001	36246.5
568.21	36222.46
568.419	36199.79
568.628	36188.48
568.837	36157.33
569.046	36130.79
569.255	36098.35
569.464	36074.3
569.673	36042.66
569.882	36013.57
570.091	35992.52
570.3	35976.21
570.509	35964.44
570.718	35954.39
570.927	35935.88
571.135	35935.75
571.344	35927.55
571.553	35935.62
571.762	35931.75
571.971	35929.77
572.18	35928.08
572.388	35915.3
572.597	35896.95
572.806	35882.37
573.014	35869.61
573.223	35860.55
573.432	35842.01
573.641	35820.08
573.849	35784.26
574.058	35752.62
574.266	35727.12
574.475	35711.5
574.684	35697.28
574.892	35685.01
575.101	35680.95
575.309	35671.12
575.518	35662.26
575.726	35660.79
575.935	35658.42
576.143	35661.46
576.352	35656.79
576.56	35641.66
576.769	35627.95
576.977	35608.79
577.186	35589.33
577.394	35556.3
577.602	35535.37
577.811	35514.21
578.019	35489.21
578.228	35474.9
578.436	35451.79
578.644	35415.92
578.852	35406.7
579.061	35380.66
579.269	35355.52
579.477	35335.64
579.685	35326.7
579.894	35308.12
580.102	35288.01
580.31	35274.02
580.518	35245.72
580.726	35221.92
580.935	35217.72
581.143	35192.59
581.351	35174.02
581.559	35163.41
581.767	35150.52
581.975	35132.93
582.183	35110.79
582.391	35089.41
582.599	35065.37
582.807	35047.68
583.015	35039.53
583.223	35021.15
583.431	35001.13
583.639	34987.55
583.847	34962.95
584.055	34942.24
584.263	34921.66
584.471	34902.28
584.678	34886.95
584.886	34868.32
585.094	34848.44
585.302	34820.48
585.51	34799.08
585.718	34788.53
585.925	34764.22
586.133	34751.79
586.341	34733.1
586.549	34713.88
586.756	34692.55
586.964	34666.88
587.172	34644.22
587.379	34622.53
587.587	34601.02
587.795	34581.7
588.002	34545.15
588.21	34528.9
588.417	34493.57
588.625	34465.42
588.833	34439.32
589.04	34413.33
589.248	34391.04
589.455	34379.33
589.663	34362.08
589.87	34345.26
590.078	34321.5
590.285	34304.33
590.492	34283.61
590.7	34268.26
590.907	34245.5
591.115	34214.42
591.322	34186.97
591.529	34163.24
591.737	34130.95
591.944	34098.48
592.151	34068.88
592.359	34043.64
592.566	34023.22
592.773	33992.62
592.981	33963.68
593.188	33941.97
593.395	33926.41
593.602	33909.72
593.809	33886.64
594.017	33862.3
594.224	33844.46
594.431	33810.68
594.638	33770.99
594.845	33728.93
595.052	33691.04
595.259	33670.46
595.466	33638.24
595.673	33612.9
595.88	33586.82
596.088	33568.01
596.295	33544.42
596.502	33515.88
596.709	33503.26
596.915	33491.3
597.122	33471.17
597.329	33454.99
597.536	33432.7
597.743	33416.35
597.95	33385.33
598.157	33349.22
598.364	33307.12
598.571	33269.55
598.777	33227.5
598.984	33172.95
599.191	33125.13
599.398	33079.57
599.605	33029.73
599.811	32980.22
600.018	32918.77
600.225	32869.84
600.431	32836.62
600.638	32805.44
600.845	32777.02
601.052	32740.26
601.258	32717.33
601.465	32680.88
601.671	32632.68
601.878	32576.61
602.085	32490.39
602.291	32404.92
602.498	32295.73
602.704	32148.41
602.911	31981.73
603.117	31794.52
603.324	31589.06
603.53	31357.33
603.737	31122.13
603.943	30891.93
604.15	30647.86
604.356	30400.57
604.562	30135.95
604.769	29877.53
604.975	29620.41
605.181	29358.92
605.388	29087.46
605.594	28826.52
605.8	28566.73
606.007	28300.81
606.213	28031.92
606.419	27748.72
606.625	27476.44
606.832	27216.59
607.038	26945.04
607.244	26680.59
607.45	26411.59
607.656	26150.84
607.863	25877.37
608.069	25601.92
608.275	25329.73
608.481	25049.64
608.687	24771.46
608.893	24487.73
609.099	24199.35
609.305	23913.92
609.511	23618.81
609.717	23327.17
609.923	23022.59
610.129	22728.42
610.335	22427.13
610.541	22116.55
610.747	21808.61
610.953	21503.59
611.159	21196.33
611.365	20889.24
611.571	20570.59
611.776	20254.66
611.982	19942.99
612.188	19625.15
612.394	19307.53
612.6	18988.08
612.806	18664.28
613.011	18338.35
613.217	18011.53
613.423	17688.99
613.628	17362.1
613.834	17045.37
614.04	16734.95
614.246	16418.97
614.451	16123.35
614.657	15820.86
614.862	15529.99
615.068	15255.68
615.274	14983.81
615.479	14714.53
615.685	14451.08
615.89	14196.86
616.096	13939.37
616.301	13680.22
616.507	13417.42
616.712	13151.68
616.918	12889.32
617.123	12622.88
617.329	12343.59
617.534	12067.15
617.74	11792.01
617.945	11510.62
618.15	11206.81
618.356	10736.41
618.561	9878.46
618.766	8839.48
618.972	7764.53
619.177	6718.77
619.382	5698.64
619.588	4708.59
619.793	4114.53
619.998	3420.4
620.203	2586.96
620.408	1580.9
620.614	591.5
