Data from test1_MAYP1115451__33__10-14-49-046.txt Node

Date: Wed Jun 12 10:14:49 MDT 2024
User: Modes Lab
Spectrometer: MAYP111545
Trigger mode: 0
Integration Time (sec): 8.000000E-3
Scans to average: 5
Electric dark correction enabled: true
Nonlinearity correction enabled: false
Boxcar width: 5
XAxis mode: Wavelengths
Number of Pixels in Spectrum: 2068
>>>>>Begin Spectral Data<<<<<
165.214	163.37
165.449	163.5
165.683	172.83
165.918	180.98
166.152	186.75
166.387	192.57
166.621	124.46
166.856	163.28
167.09	181.99
167.325	205.75
167.559	222.62
167.794	236.22
168.028	243.53
168.263	244.41
168.497	244.86
168.732	246.24
168.966	246.37
169.2	247.88
169.435	249.37
169.669	250.62
169.903	252.26
170.138	253.41
170.372	255.1
170.606	256.95
170.841	259.04
171.075	261.01
171.309	262.13
171.544	264.33
171.778	266.93
172.012	267.82
172.246	269.53
172.48	270.21
172.715	272.08
172.949	274.24
173.183	276.12
173.417	276.33
173.651	277.01
173.885	279.22
174.119	280.12
174.354	279.86
174.588	280.92
174.822	282.26
175.056	283.64
175.29	284.53
175.524	283.66
175.758	284.02
175.992	285.53
176.226	286.53
176.46	286.17
176.694	287.17
176.928	287.84
177.162	289.02
177.396	288.92
177.63	290.48
177.864	290.15
178.097	292.5
178.331	292.53
178.565	293.19
178.799	293.59
179.033	293.32
179.267	293.77
179.5	294.9
179.734	295.57
179.968	297.02
180.202	296.86
180.436	298.26
180.669	298.92
180.903	300.68
181.137	301.92
181.371	303.3
181.604	305.24
181.838	305.95
182.072	306.59
182.305	307.77
182.539	309.06
182.772	310.08
183.006	311.5
183.24	311.37
183.473	313.59
183.707	314.75
183.94	314.73
184.174	316.33
184.408	318.21
184.641	319.84
184.875	320.46
185.108	321.33
185.342	322.75
185.575	323.95
185.808	326.93
186.042	326.5
186.275	327.35
186.509	329.42
186.742	331.86
186.976	332.13
187.209	332.75
187.442	334.57
187.676	335.62
187.909	336.35
188.142	337.21
188.376	337.99
188.609	339.37
188.842	340.57
189.076	341.97
189.309	343.04
189.542	345.32
189.775	347.73
190.009	348.86
190.242	350.79
190.475	352.48
190.708	353.9
190.941	355.21
191.174	356.92
191.408	358.53
191.641	360.59
191.874	361.62
192.107	363.79
192.34	365.59
192.573	368.52
192.806	370.55
193.039	372.44
193.272	374.52
193.505	376.37
193.738	378.19
193.971	380.53
194.204	382.7
194.437	384.84
194.67	385.24
194.903	386.52
195.136	387.1
195.369	388.93
195.602	390.62
195.835	393.22
196.068	396.06
196.301	397.77
196.533	399.66
196.766	401.1
196.999	403.57
197.232	407.19
197.465	409.39
197.698	412.37
197.93	414.12
198.163	416.41
198.396	418.22
198.629	419.57
198.861	422.06
199.094	424.1
199.327	426.28
199.559	427.04
199.792	428.46
200.025	430.28
200.257	430.66
200.49	432.64
200.723	434.84
200.955	436.41
201.188	439.61
201.42	441.57
201.653	444.04
201.886	445.82
202.118	448.01
202.351	449.53
202.583	453.39
202.816	456.19
203.048	459.21
203.281	460.9
203.513	463.81
203.745	465.44
203.978	468.33
204.21	469.75
204.443	471.75
204.675	473.32
204.907	476.61
205.14	477.12
205.372	479.15
205.605	481.33
205.837	484.32
206.069	487.13
206.302	488.93
206.534	490.12
206.766	493.21
206.998	497.13
207.231	500.04
207.463	501.15
207.695	504.1
207.927	508.3
208.159	510.35
208.392	511.88
208.624	514.19
208.856	516.52
209.088	519.19
209.32	520.77
209.552	522.28
209.784	526.01
210.017	528.62
210.249	530.88
210.481	531.48
210.713	533.93
210.945	537.84
211.177	538.86
211.409	540.73
211.641	542.84
211.873	545.01
212.105	546.32
212.337	547.26
212.569	549.39
212.801	551.06
213.033	552.52
213.264	553.68
213.496	555.17
213.728	557.17
213.96	559.73
214.192	561.57
214.424	564.13
214.656	567.46
214.887	568.55
215.119	571.44
215.351	572.92
215.583	576.02
215.815	579.33
216.046	580.84
216.278	582.7
216.51	584.32
216.741	585.88
216.973	586.88
217.205	587.08
217.436	589.02
217.668	591.04
217.9	592.13
218.131	592.41
218.363	592.08
218.595	594.04
218.826	594.75
219.058	595.81
219.289	597.01
219.521	597.7
219.752	599.28
219.984	600.37
220.215	600.46
220.447	601.81
220.678	603.95
220.91	604.44
221.141	604.81
221.373	607.82
221.604	608.33
221.836	610.61
222.067	612.06
222.298	612.7
222.53	614.06
222.761	614.72
222.993	616.13
223.224	616.93
223.455	619.19
223.686	619.37
223.918	618.97
224.149	619.99
224.38	619.61
224.612	621.73
224.843	622.7
225.074	623.61
225.305	625.02
225.536	625.44
225.768	627.32
225.999	628.95
226.23	631.72
226.461	631.84
226.692	632.37
226.923	632.41
227.155	633.19
227.386	633.7
227.617	633.99
227.848	632.99
228.079	634.66
228.31	633.77
228.541	633.26
228.772	632.32
229.003	633.15
229.234	634.32
229.465	634.9
229.696	633.77
229.927	633.64
230.158	634.55
230.389	634.77
230.62	633.93
230.85	633.44
231.081	633.62
231.312	633.19
231.543	633.39
231.774	632.84
232.005	634.32
232.236	634.35
232.466	634.73
232.697	634.02
232.928	634.33
233.159	634.26
233.389	635.13
233.62	634.33
233.851	633.64
234.082	633.3
234.312	632.81
234.543	631.19
234.774	629.92
235.004	629.39
235.235	629.52
235.466	629.1
235.696	629.64
235.927	628.26
236.157	627.99
236.388	628.72
236.618	630.55
236.849	630.48
237.08	631.44
237.31	631.99
237.541	631.12
237.771	631.15
238.002	631.84
238.232	630.64
238.463	631.02
238.693	632.15
238.923	631.37
239.154	628.61
239.384	628.12
239.615	628.37
239.845	627.62
240.075	629.55
240.306	628.82
240.536	628.02
240.766	628.17
240.997	628.57
241.227	627.72
241.457	627.81
241.687	628.62
241.918	629.33
242.148	628.08
242.378	628.04
242.608	624.72
242.839	624.57
243.069	623.81
243.299	622.42
243.529	623.57
243.759	623.01
243.989	622.08
244.22	621.26
244.45	620.68
244.68	619.39
244.91	619.82
245.14	620.82
245.37	620.73
245.6	620.28
245.83	619.59
246.06	618.42
246.29	617.93
246.52	618.04
246.75	616.99
246.98	616.9
247.21	615.55
247.44	615.01
247.67	614.82
247.9	615.06
248.13	615.7
248.359	616.5
248.589	614.22
248.819	613.66
249.049	613.35
249.279	613.33
249.509	611.42
249.738	612.42
249.968	610.82
250.198	610.08
250.428	607.08
250.657	604.37
250.887	603.46
251.117	602.46
251.347	601.44
251.576	601.15
251.806	600.1
252.036	600.13
252.265	599.92
252.495	600.95
252.725	601.12
252.954	602.15
253.184	603.35
253.413	603.06
253.643	603.86
253.873	602.77
254.102	600.61
254.332	600.5
254.561	599.26
254.791	598.73
255.02	598.13
255.25	596.68
255.479	596.42
255.708	594.97
255.938	595.33
256.167	593.81
256.397	592.88
256.626	594.22
256.856	594.08
257.085	595.62
257.314	594.53
257.544	594.59
257.773	594.35
258.002	592.95
258.232	591.97
258.461	590.72
258.69	590.13
258.919	588.95
259.149	585.93
259.378	585.66
259.607	583.84
259.836	583.7
260.065	581.37
260.295	580.32
260.524	579.06
260.753	578.33
260.982	577.77
261.211	576.33
261.44	576.06
261.669	576.9
261.899	574.66
262.128	573.33
262.357	572.13
262.586	570.84
262.815	569.55
263.044	570.75
263.273	573.59
263.502	571.93
263.731	571.55
263.96	570.86
264.189	569.41
264.418	569.32
264.646	568.57
264.875	566.28
265.104	565.52
265.333	564.86
265.562	562.93
265.791	558.86
266.02	557.26
266.249	557.53
266.477	558.52
266.706	557.79
266.935	556.28
267.164	555.04
267.393	554.99
267.621	554.33
267.85	553.46
268.079	552.61
268.307	551.35
268.536	550.73
268.765	550.46
268.993	548.3
269.222	548.26
269.451	548.37
269.679	547.82
269.908	547.53
270.137	546.92
270.365	547.86
270.594	546.95
270.822	547.17
271.051	547.37
271.279	546.02
271.508	546.92
271.736	547.66
271.965	547.95
272.193	549.08
272.422	550.26
272.65	551.26
272.879	551.92
273.107	553.21
273.336	554.7
273.564	555.12
273.792	554.5
274.021	553.5
274.249	551.24
274.477	549.42
274.706	547.77
274.934	544.77
275.162	543.02
275.391	542.06
275.619	540.24
275.847	538.02
276.075	537.04
276.304	536.32
276.532	536.3
276.76	536.41
276.988	535.61
277.216	535.42
277.445	535.95
277.673	534.42
277.901	532.5
278.129	531.82
278.357	530.44
278.585	530.26
278.813	529.7
279.041	527.33
279.269	525.33
279.497	526.08
279.725	524.86
279.954	525.19
280.182	526.21
280.41	525.21
280.637	523.44
280.865	523.44
281.093	521.97
281.321	521.5
281.549	521.41
281.777	521.99
282.005	520.81
282.233	520.28
282.461	519.04
282.689	517.86
282.916	517.22
283.144	517.75
283.372	516.82
283.6	516.57
283.828	516.41
284.055	516.44
284.283	515.46
284.511	514.33
284.739	514.04
284.966	512.88
285.194	513.37
285.422	514.17
285.649	512.97
285.877	512.9
286.105	512.37
286.332	511.3
286.56	511.24
286.788	510.61
287.015	510.39
287.243	509.66
287.47	508.86
287.698	507.64
287.925	506.68
288.153	505.44
288.381	504.95
288.608	504.08
288.836	504.3
289.063	503.81
289.29	503.41
289.518	503.06
289.745	503.1
289.973	503.92
290.2	503.44
290.428	502.1
290.655	502.61
290.882	502.37
291.11	501.61
291.337	500.64
291.564	499.52
291.792	498.41
292.019	498.66
292.246	497.04
292.473	495.97
292.701	495.64
292.928	494.5
293.155	495.02
293.382	494.19
293.61	493.92
293.837	493.06
294.064	491.53
294.291	491.19
294.518	488.95
294.745	488.9
294.972	487.66
295.2	486.92
295.427	487.68
295.654	485.84
295.881	485.41
296.108	484.88
296.335	484.5
296.562	485.1
296.789	485.37
297.016	485.84
297.243	485.68
297.47	485.72
297.697	485.73
297.924	485.21
298.151	485.24
298.378	484.52
298.604	483.75
298.831	483.28
299.058	483.06
299.285	481.77
299.512	481.17
299.739	481.28
299.966	480.7
300.192	479.19
300.419	479.28
300.646	477.42
300.873	476.95
301.099	476.1
301.326	475.32
301.553	474.28
301.78	474.99
302.006	473.37
302.233	471.04
302.46	470.64
302.686	470.41
302.913	468.75
303.14	468.52
303.366	468.37
303.593	468.68
303.819	467.68
304.046	467.19
304.272	467.81
304.499	468.82
304.725	469.46
304.952	468.9
305.179	468.35
305.405	468.57
305.631	469.39
305.858	470.52
306.084	469.7
306.311	470.12
306.537	470.59
306.764	467.41
306.99	466.95
307.216	467.35
307.443	466.92
307.669	467.33
307.895	466.68
308.122	467.57
308.348	465.46
308.574	465.32
308.801	466.08
309.027	465.42
309.253	466.55
309.479	465.13
309.706	463.95
309.932	464.21
310.158	464.17
310.384	464.1
310.61	463.02
310.837	464.48
311.063	464.08
311.289	463.52
311.515	462.77
311.741	462.77
311.967	463.79
312.193	463.86
312.419	464.55
312.645	463.39
312.871	464.7
313.097	463.35
313.323	462.75
313.549	463.75
313.775	463.01
314.001	464.24
314.227	463.64
314.453	462.75
314.679	464.15
314.905	463.82
315.131	463.93
315.357	463.3
315.583	464.62
315.809	463.95
316.034	464.35
316.26	465.81
316.486	465.93
316.712	467.1
316.938	468.28
317.163	467.22
317.389	467.7
317.615	469.33
317.841	469.3
318.066	469.1
318.292	470.88
318.518	470.59
318.743	470.73
318.969	470.28
319.195	470.5
319.42	470.32
319.646	471.5
319.872	472.72
320.097	473.1
320.323	473.97
320.548	475.97
320.774	477.61
320.999	477.73
321.225	478.66
321.45	480.12
321.676	480.68
321.901	482.9
322.127	484.13
322.352	485.75
322.578	487.13
322.803	488.3
323.029	490.17
323.254	489.53
323.479	492.97
323.705	493.61
323.93	495.37
324.155	498.5
324.381	500.48
324.606	501.82
324.831	503.57
325.057	505.15
325.282	508.02
325.507	508.41
325.732	510.77
325.958	513.17
326.183	516.72
326.408	518.33
326.633	521.35
326.858	523.02
327.084	527.04
327.309	529.12
327.534	532.77
327.759	534.59
327.984	538.88
328.209	541.52
328.434	544.3
328.659	547.04
328.884	551.55
329.109	553.82
329.334	557.39
329.559	560.02
329.784	563.22
330.009	566.17
330.234	569.42
330.459	573.1
330.684	577.42
330.909	581.57
331.134	585.48
331.359	588.28
331.584	592.35
331.809	596.99
332.034	601.32
332.259	605.19
332.483	609.7
332.708	614.59
332.933	619.52
333.158	623.64
333.383	626.15
333.607	630.55
333.832	635.73
334.057	639.15
334.282	644.32
334.506	649.22
334.731	655.24
334.956	660.02
335.18	665.5
335.405	669.1
335.63	675.42
335.854	682.79
336.079	689.46
336.303	695.1
336.528	701.7
336.753	706.93
336.977	713.7
337.202	719.28
337.426	726.7
337.651	734.01
337.875	742.08
338.1	748.33
338.324	754.44
338.549	760.13
338.773	767.15
338.997	773.7
339.222	779.79
339.446	785.35
339.671	792.55
339.895	798.33
340.119	805.46
340.344	813.62
340.568	822.88
340.792	831.21
341.017	839.61
341.241	847.72
341.465	857.64
341.689	866.52
341.914	875.32
342.138	883.53
342.362	891.66
342.586	899.48
342.811	906.21
343.035	914.53
343.259	922.24
343.483	931.06
343.707	939.37
343.931	947.79
344.155	957.12
344.38	967.24
344.604	976.9
344.828	988.72
345.052	998.62
345.276	1008.53
345.5	1015.57
345.724	1027.17
345.948	1037.1
346.172	1046.77
346.396	1056.5
346.62	1068.26
346.844	1077.04
347.068	1087.82
347.292	1097.82
347.515	1106.97
347.739	1118.73
347.963	1129.19
348.187	1138.53
348.411	1149.93
348.635	1161.59
348.859	1170.19
349.082	1179.82
349.306	1190.68
349.53	1200.82
349.754	1209.77
349.977	1220.42
350.201	1230.62
350.425	1242.95
350.649	1254.24
350.872	1264.48
351.096	1274.64
351.32	1288.01
351.543	1298.35
351.767	1310.44
351.99	1321.41
352.214	1332.46
352.438	1344.24
352.661	1354.9
352.885	1365.66
353.108	1376.68
353.332	1388.28
353.555	1401.82
353.779	1413.55
354.002	1427.06
354.226	1438.61
354.449	1450.64
354.673	1463.28
354.896	1475.42
355.12	1487.59
355.343	1500.1
355.566	1513.46
355.79	1526.62
356.013	1537.35
356.237	1549.82
356.46	1560.59
356.683	1572.72
356.907	1585.39
357.13	1598.53
357.353	1612.52
357.576	1625.1
357.8	1636.93
358.023	1650.32
358.246	1659.9
358.469	1673.04
358.693	1686.19
358.916	1698.81
359.139	1715.04
359.362	1727.92
359.585	1742.53
359.808	1754.08
360.031	1765.9
360.255	1781.41
360.478	1793.59
360.701	1808.62
360.924	1822.08
361.147	1833.92
361.37	1848.73
361.593	1860.1
361.816	1872.73
362.039	1882.97
362.262	1896.5
362.485	1910.41
362.708	1922.99
362.931	1936.84
363.154	1950.99
363.377	1964.01
363.599	1978.81
363.822	1992.57
364.045	2005.39
364.268	2019.08
364.491	2034.88
364.714	2050.5
364.936	2064.9
365.159	2079.88
365.382	2094.52
365.605	2108.19
365.828	2127.97
366.05	2143.3
366.273	2158.02
366.496	2174.7
366.718	2192.28
366.941	2210.04
367.164	2225.37
367.386	2242.06
367.609	2256.73
367.832	2271.53
368.054	2288.06
368.277	2301.02
368.5	2316.26
368.722	2334.01
368.945	2349.46
369.167	2365.28
369.39	2381.39
369.612	2398.7
369.835	2414.39
370.057	2431.75
370.28	2447.73
370.502	2466.1
370.725	2482.42
370.947	2499.92
371.169	2514.92
371.392	2533.42
371.614	2549.59
371.837	2565.12
372.059	2581.64
372.281	2599.22
372.504	2618.37
372.726	2638.33
372.948	2654.68
373.171	2674.48
373.393	2692.08
373.615	2711.86
373.837	2728.81
374.06	2745.97
374.282	2763.24
374.504	2782.62
374.726	2804.46
374.948	2822.55
375.17	2840.68
375.393	2861.64
375.615	2881.59
375.837	2902.57
376.059	2920.59
376.281	2940.82
376.503	2962.28
376.725	2980.53
376.947	3001.1
377.169	3019.48
377.391	3038.39
377.613	3058.9
377.835	3078.82
378.057	3100.61
378.279	3119.01
378.501	3143.81
378.723	3164.48
378.945	3186.3
379.167	3211.02
379.389	3233.01
379.611	3257.08
379.833	3279.17
380.054	3302.08
380.276	3325.28
380.498	3347.12
380.72	3375.3
380.942	3397.95
381.163	3421.57
381.385	3446.72
381.607	3472.53
381.829	3496.02
382.05	3520.93
382.272	3551.12
382.494	3578.5
382.716	3603.86
382.937	3627.77
383.159	3652.39
383.381	3678.08
383.602	3708.24
383.824	3734.97
384.045	3761.3
384.267	3785.35
384.488	3811.75
384.71	3837.26
384.932	3861.02
385.153	3885.81
385.375	3914.12
385.596	3940.08
385.818	3966.04
386.039	3991.79
386.261	4021.26
386.482	4050.37
386.703	4082.5
386.925	4111.53
387.146	4136.26
387.368	4165.92
387.589	4196.5
387.81	4225.39
388.032	4257.73
388.253	4288.32
388.474	4315.9
388.696	4345.46
388.917	4371.41
389.138	4400.39
389.359	4427.35
389.581	4457.55
389.802	4487.3
390.023	4519.17
390.244	4547.7
390.465	4574.64
390.687	4602.68
390.908	4635.12
391.129	4663.22
391.35	4695.84
391.571	4727.92
391.792	4759.93
392.013	4793.82
392.234	4826.82
392.455	4857.33
392.677	4889.95
392.898	4921.04
393.119	4955.61
393.34	4985.68
393.561	5019.28
393.782	5053.21
394.003	5083.52
394.223	5117.26
394.444	5149.9
394.665	5181.15
394.886	5216.24
395.107	5253.55
395.328	5287.84
395.549	5321.26
395.77	5356.75
395.99	5393.48
396.211	5426.1
396.432	5463.26
396.653	5498.99
396.874	5534.19
397.094	5571.75
397.315	5604.17
397.536	5635.15
397.757	5671.46
397.977	5707.73
398.198	5741.39
398.419	5772.92
398.639	5807.95
398.86	5840.66
399.081	5874.06
399.301	5908.15
399.522	5941.84
399.742	5974.97
399.963	6009.99
400.184	6045.44
400.404	6079.57
400.625	6116.5
400.845	6151.95
401.066	6188.72
401.286	6224.75
401.507	6257.97
401.727	6292.44
401.948	6328.86
402.168	6365.08
402.388	6400.95
402.609	6437.13
402.829	6472.1
403.05	6508.88
403.27	6546.99
403.49	6577.79
403.711	6613.22
403.931	6651.55
404.151	6683.52
404.372	6719.28
404.592	6754.19
404.812	6790.61
405.032	6824.57
405.253	6859.46
405.473	6891.48
405.693	6926.53
405.913	6966.15
406.133	6996.86
406.353	7034.55
406.574	7073.66
406.794	7108.37
407.014	7143.42
407.234	7179.97
407.454	7211.77
407.674	7248.15
407.894	7285.41
408.114	7318.92
408.334	7352.59
408.554	7398.97
408.774	7435.59
408.994	7473.37
409.214	7509.59
409.434	7548.15
409.654	7583.84
409.874	7628.79
410.094	7666.52
410.314	7702.95
410.534	7744.04
410.754	7785.97
410.974	7817.39
411.193	7852.95
411.413	7892.42
411.633	7932.86
411.853	7977.22
412.073	8014.08
412.292	8048.79
412.512	8089.57
412.732	8133.66
412.952	8168.88
413.171	8207.01
413.391	8251.86
413.611	8294.17
413.831	8335.12
414.05	8376.3
414.27	8415.39
414.489	8459.82
414.709	8502.35
414.929	8548.86
415.148	8585.64
415.368	8631.64
415.587	8676.1
415.807	8718.39
416.026	8759.37
416.246	8802.52
416.465	8845.22
416.685	8889.59
416.904	8934.39
417.124	8975.02
417.343	9010.72
417.563	9056.42
417.782	9100.19
418.002	9145.95
418.221	9193.02
418.44	9239.59
418.66	9283.35
418.879	9328.66
419.098	9370.86
419.318	9411.97
419.537	9463.15
419.756	9507.53
419.976	9554.04
420.195	9595.77
420.414	9638.59
420.633	9676.64
420.853	9715.88
421.072	9758.28
421.291	9802.1
421.51	9841.64
421.729	9890.33
421.948	9929.39
422.168	9975.12
422.387	10015.84
422.606	10056.37
422.825	10102.08
423.044	10145.93
423.263	10196.24
423.482	10245.33
423.701	10289.41
423.92	10337.06
424.139	10377.13
424.358	10423.57
424.577	10466.62
424.796	10515.97
425.015	10570.68
425.234	10611.7
425.453	10657.68
425.672	10698.66
425.891	10739.72
426.11	10788.44
426.328	10837.66
426.547	10879.81
426.766	10925.92
426.985	10969.52
427.204	11015.3
427.422	11059.24
427.641	11110.17
427.86	11160.15
428.079	11205.5
428.297	11256.26
428.516	11299.01
428.735	11343.26
428.954	11398.72
429.172	11447.15
429.391	11502.59
429.61	11548.21
429.828	11598.17
430.047	11645.44
430.265	11692.59
430.484	11745.46
430.703	11790.92
430.921	11837.46
431.14	11889.61
431.358	11934.12
431.577	11975.99
431.795	12018.73
432.014	12067.84
432.232	12110.7
432.451	12158.84
432.669	12206.62
432.887	12253.44
433.106	12299.62
433.324	12342.79
433.543	12389.37
433.761	12436.04
433.979	12491.33
434.198	12542.97
434.416	12592.46
434.634	12642.3
434.853	12689.97
435.071	12740.73
435.289	12785.41
435.507	12832.01
435.726	12884.44
435.944	12926.46
436.162	12975.7
436.38	13015.57
436.598	13063.15
436.817	13109.26
437.035	13157.44
437.253	13197.41
437.471	13244.24
437.689	13293.21
437.907	13342.52
438.125	13395.61
438.343	13447.57
438.561	13490.08
438.78	13542.57
438.998	13584.26
439.216	13630.19
439.434	13674.44
439.652	13726.7
439.869	13767.5
440.087	13812.66
440.305	13856.64
440.523	13895.64
440.741	13940.68
440.959	13992.42
441.177	14041.13
441.395	14093.88
441.613	14143.19
441.831	14188.5
442.048	14237.46
442.266	14287.79
442.484	14336.59
442.702	14385.92
442.919	14437.77
443.137	14487.22
443.355	14536.66
443.573	14583.62
443.79	14630.15
444.008	14682.57
444.226	14735.04
444.443	14779.01
444.661	14824.44
444.879	14880.53
445.096	14932.48
445.314	14983.62
445.532	15037.28
445.749	15085.26
445.967	15132.53
446.184	15180.97
446.402	15221.57
446.619	15270.72
446.837	15320.01
447.054	15372.79
447.272	15414.61
447.489	15459.68
447.707	15506.28
447.924	15550.42
448.141	15599.77
448.359	15648.39
448.576	15697.12
448.794	15748.81
449.011	15793.84
449.228	15840.84
449.446	15889.62
449.663	15937.39
449.88	15985.99
450.098	16030.21
450.315	16081.26
450.532	16124.64
450.749	16178.17
450.967	16223.73
451.184	16272.13
451.401	16322.61
451.618	16373.06
451.835	16421.92
452.052	16470.93
452.27	16520.3
452.487	16574.13
452.704	16620.04
452.921	16673.02
453.138	16713.42
453.355	16763.06
453.572	16813.48
453.789	16858.5
454.006	16908.44
454.223	16953.97
454.44	17004.61
454.657	17053.92
454.874	17098.95
455.091	17151.81
455.308	17195.28
455.525	17247.21
455.742	17298.13
455.959	17348.77
456.176	17400.97
456.393	17445.81
456.609	17493.53
456.826	17542.97
457.043	17593.21
457.26	17636.86
457.477	17672.81
457.693	17721.99
457.91	17762.41
458.127	17809.84
458.344	17850.04
458.56	17891.39
458.777	17940.44
458.994	17981.44
459.21	18016.97
459.427	18050.24
459.644	18091.75
459.86	18127.26
460.077	18161.44
460.294	18200.73
460.51	18233.13
460.727	18267.92
460.943	18301.32
461.16	18331.82
461.376	18359.02
461.593	18396.82
461.809	18437.17
462.026	18474.5
462.242	18519.35
462.459	18554.61
462.675	18595.9
462.892	18634.08
463.108	18672.93
463.324	18712.21
463.541	18749.95
463.757	18795.55
463.974	18839.55
464.19	18881.5
464.406	18928.86
464.623	18975.35
464.839	19032.37
465.055	19077.72
465.271	19123.53
465.488	19169.93
465.704	19222.66
465.92	19278.46
466.136	19337.84
466.353	19385.35
466.569	19437.12
466.785	19487.26
467.001	19540.26
467.217	19590.04
467.433	19646.61
467.649	19702.1
467.865	19765.04
468.082	19823.59
468.298	19881.57
468.514	19939.82
468.73	20006.72
468.946	20080.32
469.162	20143.68
469.378	20210.04
469.594	20276.02
469.81	20342.26
470.026	20411.57
470.242	20474.77
470.457	20539.04
470.673	20599.72
470.889	20661.52
471.105	20724.64
471.321	20787.79
471.537	20852.55
471.753	20918.35
471.968	20979.84
472.184	21051.02
472.4	21118.93
472.616	21193.33
472.832	21271.28
473.047	21349.42
473.263	21423.73
473.479	21491.19
473.694	21559.52
473.91	21635.88
474.126	21708.06
474.341	21784.66
474.557	21856.44
474.773	21926.08
474.988	21987.21
475.204	22055.55
475.42	22131.59
475.635	22212.82
475.851	22297.72
476.066	22368.57
476.282	22439.64
476.497	22510.88
476.713	22582.7
476.928	22652.32
477.144	22725.77
477.359	22797.21
477.575	22860.15
477.79	22917.55
478.005	22973.81
478.221	23031.88
478.436	23088.04
478.651	23149.1
478.867	23214.22
479.082	23274.33
479.297	23337.44
479.513	23400.53
479.728	23452.95
479.943	23505.66
480.159	23555.3
480.374	23605.08
480.589	23657.01
480.804	23712.7
481.019	23760.21
481.235	23799.1
481.45	23839.5
481.665	23878.08
481.88	23925.06
482.095	23983.24
482.31	24041.79
482.525	24097.21
482.741	24148.15
482.956	24194.9
483.171	24241.64
483.386	24293.77
483.601	24350.06
483.816	24403.68
484.031	24454.75
484.246	24498.5
484.461	24541.7
484.676	24584.52
484.891	24629.77
485.105	24675.13
485.32	24715.95
485.535	24770.06
485.75	24814.77
485.965	24849.92
486.18	24896.1
486.395	24928.93
486.609	24966.72
486.824	25006.22
487.039	25057.75
487.254	25101.3
487.469	25145.24
487.683	25188.59
487.898	25219.92
488.113	25256.95
488.327	25304.15
488.542	25345.62
488.757	25394.01
488.972	25430.57
489.186	25470.15
489.401	25491.88
489.615	25515.52
489.83	25547.52
490.045	25583.86
490.259	25614.7
490.474	25651.84
490.688	25675.59
490.903	25696.01
491.117	25724.88
491.332	25751.17
491.546	25780.42
491.761	25810.86
491.975	25856.19
492.19	25890.42
492.404	25915.99
492.618	25953.77
492.833	25981.44
493.047	26017.48
493.262	26053.39
493.476	26071.84
493.69	26112.84
493.905	26139.04
494.119	26169.46
494.333	26193.99
494.547	26218.75
494.762	26249.99
494.976	26269.9
495.19	26289.1
495.404	26315.86
495.619	26335.53
495.833	26377.73
496.047	26389.75
496.261	26409.92
496.475	26424.72
496.689	26430.99
496.903	26437.68
497.117	26437.3
497.332	26439.68
497.546	26440.24
497.76	26429.55
497.974	26425.22
498.188	26407.92
498.402	26400.57
498.616	26400.59
498.83	26390.35
499.044	26393.68
499.258	26389.22
499.472	26391.06
499.685	26395.64
499.899	26403.62
500.113	26416.42
500.327	26432.82
500.541	26448.06
500.755	26470.22
500.969	26484.3
501.183	26504.72
501.396	26513.97
501.61	26537.15
501.824	26554.26
502.038	26569.97
502.251	26592.86
502.465	26608.13
502.679	26620.86
502.892	26632.12
503.106	26646.73
503.32	26656.13
503.533	26673.99
503.747	26695.82
503.961	26718.62
504.174	26744.13
504.388	26773.22
504.602	26804.59
504.815	26832.75
505.029	26874.72
505.242	26922.79
505.456	26969.5
505.669	27022.95
505.883	27079.93
506.096	27134.1
506.31	27185.59
506.523	27246.15
506.736	27300.5
506.95	27342.72
507.163	27400.92
507.377	27457.21
507.59	27516.3
507.803	27575.01
508.017	27636.41
508.23	27693.97
508.443	27759.48
508.657	27826.15
508.87	27881.57
509.083	27947.99
509.296	28030.72
509.51	28113.32
509.723	28193.93
509.936	28272.26
510.149	28345.46
510.363	28430.01
510.576	28508.64
510.789	28598.24
511.002	28684.99
511.215	28784.9
511.428	28888.37
511.641	28985.81
511.854	29081.66
512.067	29182.73
512.28	29286.61
512.493	29397.46
512.707	29509.32
512.92	29620.59
513.132	29720.1
513.345	29829.79
513.558	29941.97
513.771	30051.81
513.984	30157.92
514.197	30274.44
514.41	30378.01
514.623	30484.55
514.836	30594.93
515.049	30690.33
515.262	30792.15
515.474	30900.79
515.687	31002.46
515.9	31105.84
516.113	31199.32
516.325	31302.73
516.538	31387.39
516.751	31474.79
516.964	31570.97
517.176	31654.73
517.389	31740.06
517.602	31830.01
517.814	31912.66
518.027	31998.59
518.24	32070.01
518.452	32142.53
518.665	32221.72
518.877	32297.62
519.09	32381.3
519.303	32452.7
519.515	32530.79
519.728	32607.39
519.94	32674.53
520.153	32742.75
520.365	32812.41
520.578	32880.19
520.79	32952.53
521.002	33014.79
521.215	33080.81
521.427	33142.44
521.64	33197.93
521.852	33248.32
522.064	33296.72
522.277	33363.52
522.489	33418.46
522.701	33460.32
522.914	33510.72
523.126	33561.84
523.338	33602.48
523.551	33645.33
523.763	33692.13
523.975	33741.72
524.187	33793.41
524.399	33843.37
524.612	33888.35
524.824	33934.84
525.036	33980.17
525.248	34027.15
525.46	34067.57
525.672	34115.02
525.884	34168.68
526.096	34205.73
526.308	34231.61
526.521	34265.04
526.733	34297.19
526.945	34317.37
527.157	34352.08
527.369	34383.61
527.581	34409.73
527.793	34443.53
528.004	34469.59
528.216	34490.15
528.428	34520.55
528.64	34559.33
528.852	34587.86
529.064	34614.24
529.276	34645.53
529.488	34679.46
529.699	34713.68
529.911	34746.97
530.123	34773.61
530.335	34800.42
530.547	34838.79
530.758	34875.59
530.97	34917.64
531.182	34952.86
531.393	34997.26
531.605	35032.86
531.817	35059.86
532.029	35093.95
532.24	35129.59
532.452	35160.61
532.663	35191.9
532.875	35210.17
533.087	35221.97
533.298	35233.92
533.51	35255.02
533.721	35266.15
533.933	35285.21
534.144	35295.48
534.356	35306.7
534.567	35322.22
534.779	35340.97
534.99	35350.32
535.202	35373.66
535.413	35395.41
535.624	35415.21
535.836	35432.22
536.047	35459.77
536.259	35475.44
536.47	35491.73
536.681	35510.42
536.893	35519.46
537.104	35531.28
537.315	35546.82
537.526	35559.04
537.738	35571.92
537.949	35580.52
538.16	35604.32
538.371	35609.35
538.582	35637.73
538.794	35656.82
539.005	35675.99
539.216	35699.88
539.427	35720.5
539.638	35750.9
539.849	35769.12
540.06	35792.68
540.272	35817.15
540.483	35834.22
540.694	35853.59
540.905	35866.13
541.116	35884.19
541.327	35899.33
541.538	35911.39
541.749	35930.79
541.96	35940.82
542.17	35954.5
542.381	35949.37
542.592	35963.84
542.803	35962.68
543.014	35979.88
543.225	35982.08
543.436	35987.93
543.647	35995.42
543.857	35997.06
544.068	35991.77
544.279	36001.06
544.49	36007.61
544.701	36033.73
544.911	36036.22
545.122	36051.68
545.333	36065.19
545.543	36077.5
545.754	36089.73
545.965	36098.9
546.175	36120.39
546.386	36139.06
546.597	36144.92
546.807	36165.84
547.018	36179.9
547.229	36193.1
547.439	36202.88
547.65	36201.39
547.86	36207.08
548.071	36221.28
548.281	36230.3
548.492	36232.82
548.702	36239.55
548.913	36241.39
549.123	36236.08
549.333	36240.77
549.544	36240.32
549.754	36239.28
549.965	36247.53
550.175	36263.5
550.385	36277.1
550.596	36297.37
550.806	36317.01
551.016	36332.64
551.227	36361.39
551.437	36372.15
551.647	36384.75
551.857	36404.7
552.068	36427.41
552.278	36440.42
552.488	36441.19
552.698	36442.13
552.908	36449.55
553.119	36450.08
553.329	36449.59
553.539	36444.84
553.749	36454.55
553.959	36457.22
554.169	36461.52
554.379	36455.66
554.589	36450.82
554.799	36453.35
555.009	36463.7
555.219	36457.41
555.429	36463.82
555.639	36461.59
555.849	36461.26
556.059	36459.84
556.269	36455.13
556.479	36452.53
556.689	36455.62
556.899	36462.48
557.109	36466.17
557.319	36460.55
557.528	36457.75
557.738	36455.99
557.948	36461.04
558.158	36464.01
558.368	36446.44
558.577	36440.79
558.787	36440.82
558.997	36432.3
559.207	36423.48
559.416	36407.99
559.626	36391.84
559.836	36387.99
560.045	36374.12
560.255	36374.21
560.465	36374.59
560.674	36388.72
560.884	36385.01
561.093	36375.62
561.303	36367.32
561.512	36366.04
561.722	36375.13
561.932	36386.84
562.141	36383.72
562.351	36376.95
562.56	36372.37
562.769	36361.77
562.979	36359.28
563.188	36368.46
563.398	36375.04
563.607	36388.86
563.817	36390.46
564.026	36385.7
564.235	36371.33
564.445	36376.02
564.654	36386.66
564.863	36386.55
565.073	36384.73
565.282	36377.99
565.491	36365.33
565.7	36354.06
565.91	36337.62
566.119	36338.81
566.328	36331.79
566.537	36324.86
566.746	36312.64
566.956	36297.24
567.165	36280.79
567.374	36270.88
567.583	36269.17
567.792	36259.81
568.001	36245.66
568.21	36226.84
568.419	36196.95
568.628	36171.9
568.837	36160.68
569.046	36132.68
569.255	36107.33
569.464	36090.82
569.673	36064.68
569.882	36039.39
570.091	36014.28
570.3	35990.88
570.509	35980.53
570.718	35973.92
570.927	35972.82
571.135	35961.95
571.344	35956.73
571.553	35958.5
571.762	35951.53
571.971	35952.42
572.18	35946.41
572.388	35934.41
572.597	35922.82
572.806	35919.97
573.014	35897.15
573.223	35880.06
573.432	35851.66
573.641	35835.1
573.849	35807.77
574.058	35789.12
574.266	35762.81
574.475	35737.9
574.684	35725.72
574.892	35711.42
575.101	35694.01
575.309	35686.61
575.518	35679.39
575.726	35675.46
575.935	35662.42
576.143	35653.17
576.352	35639.37
576.56	35623.24
576.769	35612.1
576.977	35591.7
577.186	35575.46
577.394	35548.82
577.602	35528.19
577.811	35501.39
578.019	35491.72
578.228	35480.82
578.436	35463.68
578.644	35434.55
578.852	35418.04
579.061	35393.97
579.269	35370.75
579.477	35359.01
579.685	35352.48
579.894	35338.62
580.102	35320.62
580.31	35297.24
580.518	35279.92
580.726	35260.88
580.935	35247.93
581.143	35225.02
581.351	35207.02
581.559	35200.92
581.767	35177.57
581.975	35149.77
582.183	35129.1
582.391	35109.73
582.599	35080.42
582.807	35050.99
583.015	35036.02
583.223	35019.86
583.431	35020.79
583.639	35005.04
583.847	34980.88
584.055	34964.5
584.263	34945.35
584.471	34920.22
584.678	34898.66
584.886	34886.41
585.094	34866.92
585.302	34838.24
585.51	34823.24
585.718	34791.53
585.925	34772.72
586.133	34756.1
586.341	34730.62
586.549	34713.5
586.756	34700.17
586.964	34680.66
587.172	34655.5
587.379	34627.06
587.587	34607.95
587.795	34580.52
588.002	34553.44
588.21	34526.01
588.417	34494.59
588.625	34475.46
588.833	34446.41
589.04	34414.1
589.248	34388.73
589.455	34367.9
589.663	34352.82
589.87	34328.95
590.078	34314.08
590.285	34294.97
590.492	34272.79
590.7	34256.55
590.907	34228.01
591.115	34197.55
591.322	34183.17
591.529	34165.22
591.737	34133.95
591.944	34106.06
592.151	34088.55
592.359	34053.52
592.566	34034.22
592.773	34005.93
592.981	33982.61
593.188	33957.73
593.395	33932.57
593.602	33906.19
593.809	33874.92
594.017	33855.26
594.224	33826.53
594.431	33799.9
594.638	33766.33
594.845	33726.21
595.052	33692.24
595.259	33658.41
595.466	33637.68
595.673	33622.28
595.88	33596.82
596.088	33575.06
596.295	33553.24
596.502	33534.66
596.709	33508.99
596.915	33488.42
597.122	33470.46
597.329	33450.42
597.536	33434.1
597.743	33414.66
597.95	33383.39
598.157	33360.95
598.364	33322.53
598.571	33288.08
598.777	33247.04
598.984	33200.68
599.191	33151.01
599.398	33103.04
599.605	33057.17
599.811	33005.73
600.018	32948.7
600.225	32899.59
600.431	32837.41
600.638	32800.33
600.845	32761.04
601.052	32732.59
601.258	32699.12
601.465	32663.46
601.671	32610.7
601.878	32554.28
602.085	32474.95
602.291	32380.5
602.498	32271.57
602.704	32145.3
602.911	31986.92
603.117	31800.9
603.324	31594.61
603.53	31372.77
603.737	31144.01
603.943	30912.66
604.15	30658.21
604.356	30404.01
604.562	30143.52
604.769	29882.95
604.975	29615.42
605.181	29357.53
605.388	29100.3
605.594	28834.66
605.8	28570.64
606.007	28308.95
606.213	28035.3
606.419	27768.82
606.625	27500.61
606.832	27234.46
607.038	26965.92
607.244	26703.77
607.45	26434.35
607.656	26156.86
607.863	25883.3
608.069	25609.12
608.275	25324.28
608.481	25043.92
608.687	24754.92
608.893	24472.79
609.099	24192.81
609.305	23907.39
609.511	23611.15
609.717	23318.82
609.923	23026.84
610.129	22733.64
610.335	22432.77
610.541	22137.72
610.747	21837.88
610.953	21539.77
611.159	21227.13
611.365	20906.44
611.571	20584.06
611.776	20266.59
611.982	19938.22
612.188	19622.22
612.394	19296.88
612.6	18974.57
612.806	18642.59
613.011	18314.44
613.217	17988.06
613.423	17670.46
613.628	17353.57
613.834	17038.61
614.04	16726.26
614.246	16422.39
614.451	16114.95
614.657	15818.32
614.862	15531.35
615.068	15252.84
615.274	14981.08
615.479	14707.26
615.685	14445.41
615.89	14184.32
616.096	13927.48
616.301	13665.97
616.507	13402.12
616.712	13144.13
616.918	12882.52
617.123	12616.41
617.329	12338.9
617.534	12065.79
617.74	11792.17
617.945	11503.53
618.15	11203.37
618.356	10733.99
618.561	9880.41
618.766	8842.81
618.972	7766.79
619.177	6719.3
619.382	5695.02
619.588	4705.73
619.793	4106.63
619.998	3413
620.203	2583.01
620.408	1576.39
620.614	590.63
