Data from test1_MAYP1115451__40__10-14-51-390.txt Node

Date: Wed Jun 12 10:14:51 MDT 2024
User: Modes Lab
Spectrometer: MAYP111545
Trigger mode: 0
Integration Time (sec): 8.000000E-3
Scans to average: 5
Electric dark correction enabled: true
Nonlinearity correction enabled: false
Boxcar width: 5
XAxis mode: Wavelengths
Number of Pixels in Spectrum: 2068
>>>>>Begin Spectral Data<<<<<
165.214	165.07
165.449	163.67
165.683	172.88
165.918	180.43
166.152	187.1
166.387	192.68
166.621	124.43
166.856	163.48
167.09	182.08
167.325	204.88
167.559	221.7
167.794	235.66
168.028	244.37
168.263	245.34
168.497	245.77
168.732	246.14
168.966	246.66
169.2	247.99
169.435	249.68
169.669	250.48
169.903	252.83
170.138	254.41
170.372	256.06
170.606	257.19
170.841	258.61
171.075	260.86
171.309	263.21
171.544	264.75
171.778	267.63
172.012	268.72
172.246	271.15
172.48	272.34
172.715	274.59
172.949	275.9
173.183	277.3
173.417	279.37
173.651	280.95
173.885	281.99
174.119	283.3
174.354	283.05
174.588	282.72
174.822	283.97
175.056	284.23
175.29	283.35
175.524	282.63
175.758	282.92
175.992	282.59
176.226	282.57
176.46	283.54
176.694	283.55
176.928	284.9
177.162	286.08
177.396	286.14
177.63	287.26
177.864	288.5
178.097	290.01
178.331	291.46
178.565	293.01
178.799	293.41
179.033	292.92
179.267	293.85
179.5	293.9
179.734	294.34
179.968	296.25
180.202	297.14
180.436	298.19
180.669	299.74
180.903	301.5
181.137	301.97
181.371	302.79
181.604	303.86
181.838	305.61
182.072	306.15
182.305	308.59
182.539	307.94
182.772	309.01
183.006	310.3
183.24	310.81
183.473	313.74
183.707	314.99
183.94	317.28
184.174	318.72
184.408	319.7
184.641	321.39
184.875	322.25
185.108	323.57
185.342	324.3
185.575	325.23
185.808	326.54
186.042	324.75
186.275	326.32
186.509	326.37
186.742	326.94
186.976	328.1
187.209	329.61
187.442	330.39
187.676	332.28
187.909	333.9
188.142	335.28
188.376	336.41
188.609	337.68
188.842	339.63
189.076	341.48
189.309	343.81
189.542	344.23
189.775	345.19
190.009	347.54
190.242	349.05
190.475	350.68
190.708	352.06
190.941	354.7
191.174	357.45
191.408	357.9
191.641	359.61
191.874	361.32
192.107	364.37
192.34	366.9
192.573	368.21
192.806	370.01
193.039	372.01
193.272	375.05
193.505	375.43
193.738	376.9
193.971	379.52
194.204	381.81
194.437	383.63
194.67	386.05
194.903	387.23
195.136	388.23
195.369	390.46
195.602	391.54
195.835	393.08
196.068	396.01
196.301	397.54
196.533	399.35
196.766	400.97
196.999	403.9
197.232	405.81
197.465	407.5
197.698	410.55
197.93	412.48
198.163	415.48
198.396	417.66
198.629	420.01
198.861	422.14
199.094	424.41
199.327	426.79
199.559	427.54
199.792	428.46
200.025	431.39
200.257	433.66
200.49	435.32
200.723	436.7
200.955	438.43
201.188	439.61
201.42	441.85
201.653	443.25
201.886	445.66
202.118	448.97
202.351	452.05
202.583	454.86
202.816	457.12
203.048	459.63
203.281	461.72
203.513	463.39
203.745	467.05
203.978	468.63
204.21	472.23
204.443	473.54
204.675	475.45
204.907	477.32
205.14	478.7
205.372	480.86
205.605	482.23
205.837	485.75
206.069	488.23
206.302	490.08
206.534	493.08
206.766	494.21
206.998	497.14
207.231	498.88
207.463	500.7
207.695	503.74
207.927	504.9
208.159	508.26
208.392	510.3
208.624	513.26
208.856	514.35
209.088	516.39
209.32	519.9
209.552	521.19
209.784	524.06
210.017	526.55
210.249	529.79
210.481	532.94
210.713	535.43
210.945	537.5
211.177	539.32
211.409	541.94
211.641	544.86
211.873	546.54
212.105	548.72
212.337	550.75
212.569	553.12
212.801	553.1
213.033	554.3
213.264	555.23
213.496	556.45
213.728	557.66
213.96	560.63
214.192	561.52
214.424	563.63
214.656	566.68
214.887	568.15
215.119	570.72
215.351	573.74
215.583	575.99
215.815	579.01
216.046	581.15
216.278	584.03
216.51	584.1
216.741	586.26
216.973	587.28
217.205	588.61
217.436	590.77
217.668	593.57
217.9	594.5
218.131	594.97
218.363	596.32
218.595	597.43
218.826	598.5
219.058	601.41
219.289	601.88
219.521	603.14
219.752	605.81
219.984	605.63
220.215	603.75
220.447	605.14
220.678	606.79
220.91	606.86
221.141	607.99
221.373	608.99
221.604	609.14
221.836	611.68
222.067	613.12
222.298	613.05
222.53	614.9
222.761	617.46
222.993	618.57
223.224	621.28
223.455	622.12
223.686	622.83
223.918	623.34
224.149	624.23
224.38	625.14
224.612	624.03
224.843	625.12
225.074	625.9
225.305	626.17
225.536	625.95
225.768	626.35
225.999	628.3
226.23	629.61
226.461	630.57
226.692	631.52
226.923	630.81
227.155	634.37
227.386	633.35
227.617	634.37
227.848	634.45
228.079	635.37
228.31	634.05
228.541	632.74
228.772	632.97
229.003	632.54
229.234	633.92
229.465	632.65
229.696	630.5
229.927	631.65
230.158	631.43
230.389	631.28
230.62	632.52
230.85	633.14
231.081	633.83
231.312	634.25
231.543	634.32
231.774	632.35
232.005	635.08
232.236	635.92
232.466	636.14
232.697	636.17
232.928	637.43
233.159	636.39
233.389	636.97
233.62	638.03
233.851	638.37
234.082	639.21
234.312	639.43
234.543	639.21
234.774	639.48
235.004	639.14
235.235	639.21
235.466	638.57
235.696	639.45
235.927	638.72
236.157	637.99
236.388	637.17
236.618	637.63
236.849	637.74
237.08	636.74
237.31	635.59
237.541	636.23
237.771	635.46
238.002	634.32
238.232	632.32
238.463	633.28
238.693	632.65
238.923	632.7
239.154	632.01
239.384	631.19
239.615	631.39
239.845	630.9
240.075	629.68
240.306	629.81
240.536	630.19
240.766	629.54
240.997	627.88
241.227	627.35
241.457	626.9
241.687	625.86
241.918	628.28
242.148	627.86
242.378	628.03
242.608	627.34
242.839	625.77
243.069	623.81
243.299	623.66
243.529	625.72
243.759	626.32
243.989	625.12
244.22	624.5
244.45	622.28
244.68	622.05
244.91	621.95
245.14	621.9
245.37	622.83
245.6	624.59
245.83	626.5
246.06	624.05
246.29	623.32
246.52	624.14
246.75	623.7
246.98	623.3
247.21	622.61
247.44	621.54
247.67	620.35
247.9	618.85
248.13	616.94
248.359	614.9
248.589	613.35
248.819	612.37
249.049	610.77
249.279	610.28
249.509	609.59
249.738	608.46
249.968	607.5
250.198	606.9
250.428	606.03
250.657	606.12
250.887	605.23
251.117	605.26
251.347	605.1
251.576	604.72
251.806	604.68
252.036	604.17
252.265	603.26
252.495	603.59
252.725	602.34
252.954	603.81
253.184	602.1
253.413	601.74
253.643	601.85
253.873	600.21
254.102	599.41
254.332	598.3
254.561	596.81
254.791	597.85
255.02	597.21
255.25	598.25
255.479	595.68
255.708	595.35
255.938	594.3
256.167	593.1
256.397	592.86
256.626	592.43
256.856	591.86
257.085	593.23
257.314	591.72
257.544	590.95
257.773	590.35
258.002	590.77
258.232	590.34
258.461	589.72
258.69	589.41
258.919	588.05
259.149	587.43
259.378	587.1
259.607	585.21
259.836	584.19
260.065	583.77
260.295	583.05
260.524	581.52
260.753	581.01
260.982	581.66
261.211	580.74
261.44	581.79
261.669	581.35
261.899	580.26
262.128	579.97
262.357	579.15
262.586	577.46
262.815	577.94
263.044	577.92
263.273	580.85
263.502	578.41
263.731	577.68
263.96	576.55
264.189	574.35
264.418	573.21
264.646	571.61
264.875	570.7
265.104	570.43
265.333	568.88
265.562	566.99
265.791	563.01
266.02	561.55
266.249	559.99
266.477	558.17
266.706	557.65
266.935	556.99
267.164	555.95
267.393	554.45
267.621	554.7
267.85	552.77
268.079	553.26
268.307	552.88
268.536	551.79
268.765	550.86
268.993	551.21
269.222	552.08
269.451	551.05
269.679	551.81
269.908	552.74
270.137	550.34
270.365	549.86
270.594	549.26
270.822	549.03
271.051	551.74
271.279	553.65
271.508	553.65
271.736	553.99
271.965	554.9
272.193	554.17
272.422	553.94
272.65	555.32
272.879	556.59
273.107	555.37
273.336	554.54
273.564	552.75
273.792	551.43
274.021	548.77
274.249	546.32
274.477	545.72
274.706	543.95
274.934	541.63
275.162	539.17
275.391	538.08
275.619	537.05
275.847	535.32
276.075	534.15
276.304	532.32
276.532	532.88
276.76	532.66
276.988	531.63
277.216	531.57
277.445	531.95
277.673	532.66
277.901	530.72
278.129	530.12
278.357	529.54
278.585	530.08
278.813	530.25
279.041	528.65
279.269	528.06
279.497	527.92
279.725	526.68
279.954	525.45
280.182	524.75
280.41	524.35
280.637	523.5
280.865	523.95
281.093	522.79
281.321	522.59
281.549	522.03
281.777	522.66
282.005	521.14
282.233	521.63
282.461	521.7
282.689	521.68
282.916	521.5
283.144	521.92
283.372	520.32
283.6	519.12
283.828	517.15
284.055	518.3
284.283	516.94
284.511	516.7
284.739	515.68
284.966	515.32
285.194	513.99
285.422	513.21
285.649	512.34
285.877	512.7
286.105	512.92
286.332	513.85
286.56	512.88
286.788	513.52
287.015	513.37
287.243	513.06
287.47	512.54
287.698	511.37
287.925	510.55
288.153	509.7
288.381	509.01
288.608	507.79
288.836	507.9
289.063	507.81
289.29	504.32
289.518	503.35
289.745	502.41
289.973	501.85
290.2	501.97
290.428	500.65
290.655	501.26
290.882	500.52
291.11	500.85
291.337	499.65
291.564	498.06
291.792	499.34
292.019	499.15
292.246	498.65
292.473	497.77
292.701	497.08
292.928	497.68
293.155	496.59
293.382	496.99
293.61	495.59
293.837	494.81
294.064	494.15
294.291	492.92
294.518	492.03
294.745	491.01
294.972	490.1
295.2	488.9
295.427	488.57
295.654	487.5
295.881	485.41
296.108	485.59
296.335	484.97
296.562	484.94
296.789	483.66
297.016	483.23
297.243	481.95
297.47	481.92
297.697	482.59
297.924	482.34
298.151	482.63
298.378	482.99
298.604	483.46
298.831	481.88
299.058	481.94
299.285	481.25
299.512	481.03
299.739	481.81
299.966	481.5
300.192	481.41
300.419	480.28
300.646	479.15
300.873	477.72
301.099	475.41
301.326	476.08
301.553	474.59
301.78	475.88
302.006	474.79
302.233	474.94
302.46	473.46
302.686	472.12
302.913	470.54
303.14	469.75
303.366	469.28
303.593	468.97
303.819	468.37
304.046	467.97
304.272	466.37
304.499	466.88
304.725	467.03
304.952	466.72
305.179	466.12
305.405	468.03
305.631	469.5
305.858	469.92
306.084	469.32
306.311	469.06
306.537	469.28
306.764	469.17
306.99	467.94
307.216	466.97
307.443	467.37
307.669	467.48
307.895	466.15
308.122	463.54
308.348	463.35
308.574	462.54
308.801	462.52
309.027	462.3
309.253	461.19
309.479	462.26
309.706	461.52
309.932	461.3
310.158	460.68
310.384	460.26
310.61	461.59
310.837	461.23
311.063	461.68
311.289	461.57
311.515	461.41
311.741	462.81
311.967	460.99
312.193	461.23
312.419	460.48
312.645	461.52
312.871	461.21
313.097	461.46
313.323	461.37
313.549	462.08
313.775	462.72
314.001	462.26
314.227	462.55
314.453	463.72
314.679	464.03
314.905	465.54
315.131	464.88
315.357	465.72
315.583	465.3
315.809	465.88
316.034	466.37
316.26	465.19
316.486	465.72
316.712	465.35
316.938	465.08
317.163	464.88
317.389	464.25
317.615	464.63
317.841	465.25
318.066	466.06
318.292	466.45
318.518	466.55
318.743	467.15
318.969	468.06
319.195	469.3
319.42	469.63
319.646	471.01
319.872	472.05
320.097	472.95
320.323	473.5
320.548	475.72
320.774	476.81
320.999	477.63
321.225	479.25
321.45	480.57
321.676	482.03
321.901	484.88
322.127	486.21
322.352	488.08
322.578	489.65
322.803	491.14
323.029	490.63
323.254	491.41
323.479	492.7
323.705	494.86
323.93	495.94
324.155	497.61
324.381	498.34
324.606	499.92
324.831	501.45
325.057	502.77
325.282	504.63
325.507	506.75
325.732	510.25
325.958	513.94
326.183	515.63
326.408	518.3
326.633	522.45
326.858	524.9
327.084	526.81
327.309	529.59
327.534	532.99
327.759	535.68
327.984	539.3
328.209	542.57
328.434	543.94
328.659	547.12
328.884	550.45
329.109	551.97
329.334	556.08
329.559	559.57
329.784	563.77
330.009	567.32
330.234	570.75
330.459	573.77
330.684	576.83
330.909	580.86
331.134	584.28
331.359	586.94
331.584	589.66
331.809	593.01
332.034	596.95
332.259	600.32
332.483	603.23
332.708	608.15
332.933	613.45
333.158	618.21
333.383	623.63
333.607	628.54
333.832	633.52
334.057	638.86
334.282	644.81
334.506	650.79
334.731	656.1
334.956	662.5
335.18	667.9
335.405	673.28
335.63	678.65
335.854	683.28
336.079	688.77
336.303	695.19
336.528	702.43
336.753	707.54
336.977	713.06
337.202	718.83
337.426	725.79
337.651	731.39
337.875	738.03
338.1	746.1
338.324	754.12
338.549	762.52
338.773	770.23
338.997	777.54
339.222	784.21
339.446	791.03
339.671	799.94
339.895	806.35
340.119	815.97
340.344	824.43
340.568	830.54
340.792	837.79
341.017	843.52
341.241	851.59
341.465	859.43
341.689	866.63
341.914	875.92
342.138	882.79
342.362	893.03
342.586	899.99
342.811	907.61
343.035	917.19
343.259	924.81
343.483	933.25
343.707	940.9
343.931	949.97
344.155	959.26
344.38	968.74
344.604	978.05
344.828	986.15
345.052	996.14
345.276	1005.46
345.5	1014.28
345.724	1024.39
345.948	1034.7
346.172	1046.21
346.396	1054.99
346.62	1068.66
346.844	1077.85
347.068	1089.7
347.292	1098.79
347.515	1109.12
347.739	1121.32
347.963	1132.74
348.187	1142.65
348.411	1153.75
348.635	1163.26
348.859	1175.05
349.082	1184.74
349.306	1196.26
349.53	1204.05
349.754	1216.68
349.977	1226.03
350.201	1234.01
350.425	1244.26
350.649	1257.59
350.872	1269.08
351.096	1279.95
351.32	1289.7
351.543	1301.41
351.767	1311.37
351.99	1324.12
352.214	1334.05
352.438	1347.59
352.661	1360.45
352.885	1371.48
353.108	1381.46
353.332	1393.83
353.555	1406.41
353.779	1418.79
354.002	1428.74
354.226	1442.01
354.449	1455.25
354.673	1468.54
354.896	1479.95
355.12	1492.03
355.343	1504.28
355.566	1517.83
355.79	1529.99
356.013	1542.95
356.237	1555.45
356.46	1567.23
356.683	1579.72
356.907	1590.61
357.13	1602.63
357.353	1614.9
357.576	1627.66
357.8	1638.77
358.023	1651.05
358.246	1663.05
358.469	1674.99
358.693	1687.19
358.916	1702.48
359.139	1716.19
359.362	1729.46
359.585	1743.65
359.808	1756.75
360.031	1769.21
360.255	1782.28
360.478	1795.74
360.701	1809.28
360.924	1821.99
361.147	1835.41
361.37	1847.06
361.593	1859.37
361.816	1873.1
362.039	1886.52
362.262	1900.94
362.485	1913.26
362.708	1930.46
362.931	1943.34
363.154	1955.7
363.377	1970.1
363.599	1984.94
363.822	1998.75
364.045	2014.19
364.268	2029.5
364.491	2043.59
364.714	2058.83
364.936	2073.01
365.159	2087.48
365.382	2101.9
365.605	2119.25
365.828	2134.68
366.05	2150.39
366.273	2166.19
366.496	2180.85
366.718	2194.55
366.941	2208.26
367.164	2221.35
367.386	2239.86
367.609	2254.39
367.832	2270.52
368.054	2286.61
368.277	2303.79
368.5	2317.83
368.722	2333.92
368.945	2349.08
369.167	2365.66
369.39	2385.34
369.612	2401.48
369.835	2416.35
370.057	2432.25
370.28	2449.23
370.502	2465.88
370.725	2483.14
370.947	2500.61
371.169	2518.15
371.392	2535.59
371.614	2552.88
371.837	2568.74
372.059	2585.54
372.281	2603.08
372.504	2620.65
372.726	2636.26
372.948	2653.28
373.171	2668.68
373.393	2685.54
373.615	2701.95
373.837	2718.23
374.06	2735.65
374.282	2755.14
374.504	2774.21
374.726	2794.81
374.948	2812.43
375.17	2833.66
375.393	2854.1
375.615	2876.77
375.837	2896.66
376.059	2916.03
376.281	2939.46
376.503	2960.75
376.725	2978.28
376.947	3001.81
377.169	3023.1
377.391	3046.68
377.613	3067.72
377.835	3086.01
378.057	3104.28
378.279	3126.77
378.501	3148.21
378.723	3167.75
378.945	3192.03
379.167	3213.41
379.389	3232.55
379.611	3253.61
379.833	3275.65
380.054	3298.97
380.276	3322.68
380.498	3349.1
380.72	3373.3
380.942	3398.83
381.163	3423.34
381.385	3447.05
381.607	3472.95
381.829	3497.06
382.05	3522.81
382.272	3548.66
382.494	3572.55
382.716	3601.23
382.937	3622.92
383.159	3646.55
383.381	3674.08
383.602	3698.54
383.824	3723.06
384.045	3748.3
384.267	3775.08
384.488	3798.65
384.71	3823.77
384.932	3851.3
385.153	3874.25
385.375	3905.14
385.596	3935.1
385.818	3960.35
386.039	3989.66
386.261	4017.99
386.482	4043.94
386.703	4072.72
386.925	4101.68
387.146	4129.46
387.368	4159.7
387.589	4189.63
387.81	4218.05
388.032	4245.19
388.253	4277.17
388.474	4306.97
388.696	4337.75
388.917	4369.37
389.138	4399.19
389.359	4429.86
389.581	4459.41
389.802	4488.97
390.023	4519.14
390.244	4548.37
390.465	4581.74
390.687	4605.5
390.908	4636.14
391.129	4664.28
391.35	4698.12
391.571	4731.7
391.792	4761.25
392.013	4792.06
392.234	4823.95
392.455	4856.81
392.677	4892.1
392.898	4924.32
393.119	4956.99
393.34	4988.14
393.561	5022.5
393.782	5051.34
394.003	5080.43
394.223	5118.48
394.444	5154.54
394.665	5187.63
394.886	5223.55
395.107	5252.83
395.328	5285.43
395.549	5324.88
395.77	5359.81
395.99	5392.17
396.211	5428.48
396.432	5465.97
396.653	5498.01
396.874	5534.01
397.094	5567.25
397.315	5599.17
397.536	5635.23
397.757	5667.17
397.977	5700.88
398.198	5737.37
398.419	5772.5
398.639	5806.92
398.86	5840.72
399.081	5874.65
399.301	5907.99
399.522	5943.66
399.742	5977.92
399.963	6009.83
400.184	6046.17
400.404	6081.39
400.625	6115.68
400.845	6155.65
401.066	6191.95
401.286	6224.15
401.507	6258.03
401.727	6293.63
401.948	6326.21
402.168	6362.35
402.388	6401.3
402.609	6438.99
402.829	6471.77
403.05	6503.65
403.27	6532.99
403.49	6565.01
403.711	6600.9
403.931	6642.06
404.151	6679.08
404.372	6716.21
404.592	6751.39
404.812	6782.3
405.032	6812.65
405.253	6849.3
405.473	6884.79
405.693	6920.99
405.913	6960.52
406.133	7001.54
406.353	7037.94
406.574	7070.23
406.794	7106.46
407.014	7143.72
407.234	7181.68
407.454	7220.03
407.674	7254.35
407.894	7296.17
408.114	7333.9
408.334	7366.92
408.554	7400.32
408.774	7430.66
408.994	7470.83
409.214	7509.85
409.434	7547.65
409.654	7587.45
409.874	7626.94
410.094	7665.25
410.314	7703.05
410.534	7739.61
410.754	7780.01
410.974	7818.59
411.193	7860.25
411.413	7899.05
411.633	7935.12
411.853	7975.54
412.073	8010.85
412.292	8045.25
412.512	8083.45
412.732	8115.63
412.952	8159.21
413.171	8199.14
413.391	8244.05
413.611	8286.03
413.831	8323.88
414.05	8369.14
414.27	8406.99
414.489	8447.03
414.709	8493.88
414.929	8540.61
415.148	8588.88
415.368	8626.23
415.587	8674.28
415.807	8715.08
416.026	8760.21
416.246	8806.68
416.465	8849.39
416.685	8893.9
416.904	8943.7
417.124	8986.35
417.343	9029.48
417.563	9072.26
417.782	9122.03
418.002	9164.74
418.221	9207.81
418.44	9248.52
418.66	9288.83
418.879	9331.95
419.098	9373.95
419.318	9412.92
419.537	9460.06
419.756	9503.1
419.976	9545.28
420.195	9587.79
420.414	9626.34
420.633	9670.34
420.853	9709.15
421.072	9753.39
421.291	9796.46
421.51	9841.25
421.729	9886.9
421.948	9928.61
422.168	9971.21
422.387	10015.61
422.606	10056.66
422.825	10101.54
423.044	10143.86
423.263	10191.55
423.482	10234.52
423.701	10279.41
423.92	10322.79
424.139	10367.01
424.358	10413.85
424.577	10455.37
424.796	10501.43
425.015	10550.05
425.234	10598.57
425.453	10647.99
425.672	10692.12
425.891	10741.35
426.11	10785.39
426.328	10831.66
426.547	10876.85
426.766	10923.05
426.985	10973.77
427.204	11019.72
427.422	11062.41
427.641	11107.26
427.86	11153.88
428.079	11202.35
428.297	11251.75
428.516	11303.5
428.735	11353.55
428.954	11401.32
429.172	11449.28
429.391	11498.7
429.61	11550.9
429.828	11605.92
430.047	11657.95
430.265	11702.57
430.484	11748.17
430.703	11792.61
430.921	11833.94
431.14	11878.41
431.358	11923.88
431.577	11964.99
431.795	12008.37
432.014	12058.45
432.232	12102.75
432.451	12153.45
432.669	12197.83
432.887	12250.59
433.106	12296.46
433.324	12345.14
433.543	12398.81
433.761	12447.57
433.979	12498.28
434.198	12551.81
434.416	12594.57
434.634	12644.1
434.853	12687.57
435.071	12741.03
435.289	12784.26
435.507	12831.94
435.726	12878.23
435.944	12916.03
436.162	12969.74
436.38	13017.3
436.598	13064.34
436.817	13111.55
437.035	13156.05
437.253	13194.83
437.471	13245.23
437.689	13293.7
437.907	13342.14
438.125	13392.99
438.343	13446.34
438.561	13490.9
438.78	13541.74
438.998	13587.08
439.216	13635.39
439.434	13677.79
439.652	13731.65
439.869	13772.85
440.087	13823.59
440.305	13875.92
440.523	13925.34
440.741	13972.95
440.959	14021.05
441.177	14069.19
441.395	14119.75
441.613	14166.17
441.831	14218.08
442.048	14267.74
442.266	14318.25
442.484	14366.61
442.702	14409.75
442.919	14461.12
443.137	14509.34
443.355	14560.99
443.573	14606.08
443.79	14656.1
444.008	14707.25
444.226	14758.48
444.443	14803.81
444.661	14853.59
444.879	14901.72
445.096	14951.66
445.314	15003.15
445.532	15049.68
445.749	15092.34
445.967	15144.39
446.184	15189.5
446.402	15232.37
446.619	15283.75
446.837	15331.05
447.054	15378.88
447.272	15424.28
447.489	15468.21
447.707	15504.85
447.924	15550.63
448.141	15600.14
448.359	15644.83
448.576	15689.68
448.794	15744.35
449.011	15786.06
449.228	15829.63
449.446	15879.32
449.663	15923.01
449.88	15972.94
450.098	16023.99
450.315	16080.19
450.532	16137.05
450.749	16184.75
450.967	16234.46
451.184	16278.95
451.401	16333.83
451.618	16386.25
451.835	16431.41
452.052	16482.39
452.27	16535.37
452.487	16582.34
452.704	16633.43
452.921	16671.35
453.138	16720.61
453.355	16767.77
453.572	16819.59
453.789	16862.81
454.006	16914.21
454.223	16961.43
454.44	17017.21
454.657	17063.63
454.874	17108.9
455.091	17152.77
455.308	17203.1
455.525	17253.74
455.742	17300.75
455.959	17344.61
456.176	17391.41
456.393	17435.17
456.609	17486.01
456.826	17527.63
457.043	17576.95
457.26	17624.54
457.477	17665.28
457.693	17710.92
457.91	17752.15
458.127	17800.43
458.344	17848.23
458.56	17894.19
458.777	17933.72
458.994	17969.9
459.21	18004.74
459.427	18037.39
459.644	18075.55
459.86	18111.72
460.077	18144.43
460.294	18178.65
460.51	18214.7
460.727	18248.65
460.943	18283.43
461.16	18328.35
461.376	18363.57
461.593	18409.35
461.809	18446.81
462.026	18488.65
462.242	18532.43
462.459	18570.25
462.675	18610.12
462.892	18649.94
463.108	18684.79
463.324	18723.92
463.541	18764.19
463.757	18805.7
463.974	18847.23
464.19	18893.9
464.406	18934.41
464.623	18981.1
464.839	19039.92
465.055	19094.61
465.271	19144.81
465.488	19195.54
465.704	19242.06
465.92	19289.1
466.136	19340.06
466.353	19387.41
466.569	19438.92
466.785	19498.12
467.001	19544.5
467.217	19595.39
467.433	19652.34
467.649	19704.03
467.865	19768.21
468.082	19830.12
468.298	19896.83
468.514	19958.41
468.73	20024.94
468.946	20086.48
469.162	20151.57
469.378	20216.68
469.594	20276.55
469.81	20337.48
470.026	20402.81
470.242	20457.12
470.457	20520.48
470.673	20584.43
470.889	20657.66
471.105	20721.75
471.321	20790.79
471.537	20854.95
471.753	20929.06
471.968	20997.03
472.184	21067.03
472.4	21144.34
472.616	21220.63
472.832	21295.08
473.047	21360.55
473.263	21430.28
473.479	21501.15
473.694	21570.88
473.91	21650.21
474.126	21719.74
474.341	21792.99
474.557	21861.45
474.773	21919.72
474.988	21992.94
475.204	22060.14
475.42	22135.39
475.635	22204.35
475.851	22274.35
476.066	22353.65
476.282	22411.66
476.497	22479.85
476.713	22551.95
476.928	22624.55
477.144	22701.43
477.359	22766.12
477.575	22832.55
477.79	22897.66
478.005	22962.17
478.221	23024.99
478.436	23079.9
478.651	23145.48
478.867	23206.79
479.082	23267.17
479.297	23322.3
479.513	23381.08
479.728	23433.43
479.943	23488.5
480.159	23540.25
480.374	23600.25
480.589	23652.85
480.804	23710.08
481.019	23761.21
481.235	23808.99
481.45	23853.41
481.665	23903.61
481.88	23950.52
482.095	24011.08
482.31	24070.21
482.525	24123.54
482.741	24170.77
482.956	24229.32
483.171	24279.19
483.386	24327.79
483.601	24381.81
483.816	24435.48
484.031	24480.83
484.246	24522.21
484.461	24560.45
484.676	24601.92
484.891	24646.94
485.105	24679.72
485.32	24712.37
485.535	24747.52
485.75	24792.79
485.965	24835.32
486.18	24879.52
486.395	24919.19
486.609	24972.68
486.824	25010.14
487.039	25038.26
487.254	25074.72
487.469	25126.39
487.683	25175.03
487.898	25208.34
488.113	25246.7
488.327	25280.77
488.542	25305.92
488.757	25350.34
488.972	25380.9
489.186	25426.05
489.401	25472.41
489.615	25508.48
489.83	25543.46
490.045	25580.95
490.259	25619.3
490.474	25654.97
490.688	25684.86
490.903	25724.15
491.117	25753.26
491.332	25781.19
491.546	25807.52
491.761	25833.9
491.975	25856.75
492.19	25883.59
492.404	25913.28
492.618	25948.81
492.833	25975.34
493.047	26012.54
493.262	26041.72
493.476	26068.23
493.69	26102.99
493.905	26129.7
494.119	26167.79
494.333	26205.17
494.547	26232.65
494.762	26256.41
494.976	26289.52
495.19	26314.48
495.404	26340.14
495.619	26371.21
495.833	26397.01
496.047	26410.46
496.261	26428.97
496.475	26435.21
496.689	26445.03
496.903	26456.34
497.117	26456.23
497.332	26451.08
497.546	26442.26
497.76	26425.54
497.974	26415.83
498.188	26404.3
498.402	26400.17
498.616	26395.08
498.83	26393.52
499.044	26389.85
499.258	26384.59
499.472	26389.23
499.685	26386.77
499.899	26399.14
500.113	26409.97
500.327	26419.88
500.541	26438.48
500.755	26452.68
500.969	26480.08
501.183	26498.97
501.396	26516.66
501.61	26536.3
501.824	26552.74
502.038	26578.23
502.251	26604.52
502.465	26626.77
502.679	26635.68
502.892	26647.41
503.106	26663.81
503.32	26666.21
503.533	26687.65
503.747	26705.05
503.961	26715.55
504.174	26732.85
504.388	26753.55
504.602	26781.65
504.815	26817.65
505.029	26865.81
505.242	26903.63
505.456	26955.05
505.669	27009.68
505.883	27055.3
506.096	27111.17
506.31	27168.25
506.523	27225.88
506.736	27285.14
506.95	27335.54
507.163	27390.81
507.377	27448.34
507.59	27514.19
507.803	27564.43
508.017	27621.25
508.23	27677.12
508.443	27747.75
508.657	27824.88
508.87	27886.14
509.083	27947.86
509.296	28020.81
509.51	28105.41
509.723	28182.95
509.936	28260.12
510.149	28354.5
510.363	28438.66
510.576	28534.95
510.789	28614.19
511.002	28709.03
511.215	28815.01
511.428	28926.81
511.641	29026.74
511.854	29119.45
512.067	29222.45
512.28	29333.95
512.493	29431.14
512.707	29542.1
512.92	29642.59
513.132	29748.37
513.345	29851.15
513.558	29956.03
513.771	30058.85
513.984	30166.01
514.197	30277.9
514.41	30379.83
514.623	30481.81
514.836	30593.32
515.049	30698.72
515.262	30805.26
515.474	30915.54
515.687	31006.94
515.9	31108.75
516.113	31203.97
516.325	31302.97
516.538	31390.75
516.751	31485.85
516.964	31575.7
517.176	31664.81
517.389	31753.52
517.602	31842.75
517.814	31921.39
518.027	32004.95
518.24	32097.81
518.452	32177.86
518.665	32254.21
518.877	32339.01
519.09	32415.46
519.303	32490.77
519.515	32556.72
519.728	32621.17
519.94	32687.34
520.153	32756.41
520.365	32832.28
520.578	32885.68
520.79	32955.34
521.002	33024.5
521.215	33082.66
521.427	33146.05
521.64	33205.26
521.852	33261.66
522.064	33326.75
522.277	33379.59
522.489	33436.9
522.701	33483.88
522.914	33536.75
523.126	33579.1
523.338	33626.55
523.551	33672.28
523.763	33707.61
523.975	33754.72
524.187	33801.52
524.399	33840.7
524.612	33895.92
524.824	33937.54
525.036	33988.37
525.248	34033.72
525.46	34088.05
525.672	34124.14
525.884	34171.65
526.096	34212.54
526.308	34244.17
526.521	34275.9
526.733	34308.99
526.945	34326.74
527.157	34369.59
527.369	34400.26
527.581	34420.95
527.793	34442.08
528.004	34474.72
528.216	34499.08
528.428	34533.05
528.64	34568.46
528.852	34605.92
529.064	34632.83
529.276	34669.03
529.488	34688.54
529.699	34717.19
529.911	34755.37
530.123	34784.3
530.335	34817.72
530.547	34840.55
530.758	34869.79
530.97	34894.21
531.182	34924.25
531.393	34957.94
531.605	34997.19
531.817	35034.15
532.029	35068.81
532.24	35099.19
532.452	35130.99
532.663	35152.03
532.875	35188.57
533.087	35208.54
533.298	35234.23
533.51	35247.48
533.721	35273.19
533.933	35282.19
534.144	35297.74
534.356	35307.21
534.567	35311.03
534.779	35328.46
534.99	35350.88
535.202	35367.3
535.413	35385.68
535.624	35409.17
535.836	35434.65
536.047	35452.01
536.259	35468.94
536.47	35490.45
536.681	35513.43
536.893	35538.23
537.104	35548.79
537.315	35560.66
537.526	35583.03
537.738	35603.97
537.949	35619.12
538.16	35637.28
538.371	35642.06
538.582	35660.86
538.794	35676.65
539.005	35686.68
539.216	35714.48
539.427	35734.26
539.638	35748.88
539.849	35760.21
540.06	35781.61
540.272	35796.1
540.483	35808.12
540.694	35832.17
540.905	35854.08
541.116	35867.41
541.327	35886.45
541.538	35893.81
541.749	35915.32
541.96	35930.23
542.17	35945.81
542.381	35948.08
542.592	35949.95
542.803	35962.94
543.014	35966.34
543.225	35982.26
543.436	35981.26
543.647	35999.39
543.857	36005.99
544.068	36005.94
544.279	36011.25
544.49	36016.34
544.701	36028.7
544.911	36047.32
545.122	36059.3
545.333	36076.77
545.543	36080.43
545.754	36098.94
545.965	36100.41
546.175	36113.5
546.386	36128.86
546.597	36149.06
546.807	36163.61
547.018	36174.61
547.229	36183.08
547.439	36190.99
547.65	36202.12
547.86	36206.39
548.071	36218.14
548.281	36223.19
548.492	36226.25
548.702	36228.1
548.913	36229.54
549.123	36237.35
549.333	36247.25
549.544	36252.59
549.754	36264.32
549.965	36279.25
550.175	36292.68
550.385	36296.57
550.596	36308.57
550.806	36330.94
551.016	36345.06
551.227	36355.57
551.437	36364.54
551.647	36374.46
551.857	36395.88
552.068	36406.81
552.278	36415.01
552.488	36413.7
552.698	36425.88
552.908	36429.12
553.119	36427.41
553.329	36436.74
553.539	36438.59
553.749	36430.25
553.959	36441.5
554.169	36442.55
554.379	36436.65
554.589	36425.43
554.799	36431.43
555.009	36438.63
555.219	36443.9
555.429	36455.15
555.639	36456.86
555.849	36468.55
556.059	36471.46
556.269	36455.35
556.479	36455.54
556.689	36467.41
556.899	36477.17
557.109	36490.08
557.319	36490.45
557.528	36501.14
557.738	36495.75
557.948	36489.01
558.158	36479.66
558.368	36473.86
558.577	36474.86
558.787	36470.95
558.997	36455.45
559.207	36448.17
559.416	36430.92
559.626	36421.1
559.836	36394.61
560.045	36388.74
560.255	36389.3
560.465	36386.3
560.674	36392.55
560.884	36393.81
561.093	36393.3
561.303	36395.57
561.512	36394.14
561.722	36393.35
561.932	36390.57
562.141	36400.12
562.351	36402.5
562.56	36398.74
562.769	36392.99
562.979	36390.28
563.188	36391.08
563.398	36385.17
563.607	36390.77
563.817	36393.83
564.026	36388.65
564.235	36375.5
564.445	36371.63
564.654	36361.99
564.863	36360.26
565.073	36365.68
565.282	36368.99
565.491	36363.46
565.7	36354.81
565.91	36342.1
566.119	36327.39
566.328	36317.83
566.537	36316.77
566.746	36304.57
566.956	36291.57
567.165	36289.03
567.374	36282.3
567.583	36267.23
567.792	36255.41
568.001	36239.85
568.21	36223.92
568.419	36192.61
568.628	36174.01
568.837	36144.83
569.046	36130.54
569.255	36116.41
569.464	36082.75
569.673	36057.95
569.882	36028.35
570.091	36006.54
570.3	35987.35
570.509	35974.86
570.718	35976.01
570.927	35965.19
571.135	35972.46
571.344	35955.37
571.553	35951.77
571.762	35945.61
571.971	35947.23
572.18	35944.9
572.388	35936.34
572.597	35922.35
572.806	35897.5
573.014	35884.54
573.223	35877.03
573.432	35842.48
573.641	35821.5
573.849	35790.77
574.058	35763.72
574.266	35728.97
574.475	35703.94
574.684	35679.86
574.892	35672.99
575.101	35669.1
575.309	35654.74
575.518	35637.63
575.726	35632.81
575.935	35625.08
576.143	35615.52
576.352	35605.21
576.56	35590.59
576.769	35579.66
576.977	35572.97
577.186	35548.08
577.394	35528.9
577.602	35511.75
577.811	35500.72
578.019	35485.5
578.228	35463.06
578.436	35446.21
578.644	35429.92
578.852	35412.88
579.061	35399.08
579.269	35371.08
579.477	35363.03
579.685	35342.99
579.894	35310.19
580.102	35284.01
580.31	35262.37
580.518	35252.12
580.726	35232.59
580.935	35223.88
581.143	35206.12
581.351	35185.54
581.559	35173.72
581.767	35150.66
581.975	35126.68
582.183	35114.88
582.391	35097.75
582.599	35074.77
582.807	35057.03
583.015	35035.32
583.223	35012.28
583.431	34995.43
583.639	34974.34
583.847	34955.7
584.055	34938.68
584.263	34920.54
584.471	34905.97
584.678	34873.06
584.886	34856.72
585.094	34836.72
585.302	34820.05
585.51	34793.85
585.718	34768.61
585.925	34747.61
586.133	34736.28
586.341	34714.14
586.549	34697.72
586.756	34676.1
586.964	34669.35
587.172	34643.75
587.379	34618.5
587.587	34596.3
587.795	34580.94
588.002	34554.5
588.21	34542.26
588.417	34503.06
588.625	34469.3
588.833	34439.66
589.04	34410.7
589.248	34383.43
589.455	34369.81
589.663	34348.21
589.87	34315.26
590.078	34289.01
590.285	34283.81
590.492	34247.66
590.7	34233.28
590.907	34215.21
591.115	34188.45
591.322	34171.14
591.529	34152.05
591.737	34119.15
591.944	34090.99
592.151	34078.92
592.359	34047.52
592.566	34009.79
592.773	33982.7
592.981	33957.97
593.188	33930.99
593.395	33918.77
593.602	33891.48
593.809	33853.32
594.017	33830.86
594.224	33804.08
594.431	33776.54
594.638	33744.05
594.845	33718.54
595.052	33693.68
595.259	33671.48
595.466	33645.72
595.673	33623.03
595.88	33602.88
596.088	33592.77
596.295	33576.43
596.502	33559.41
596.709	33525.88
596.915	33521.97
597.122	33494.57
597.329	33475.32
597.536	33453.32
597.743	33436.5
597.95	33409.1
598.157	33380.5
598.364	33344.06
598.571	33294.55
598.777	33252.19
598.984	33212.66
599.191	33159.81
599.398	33113.43
599.605	33058.03
599.811	33001.23
600.018	32940.46
600.225	32885.94
600.431	32836.21
600.638	32794.65
600.845	32761.95
601.052	32726.55
601.258	32694.43
601.465	32648.94
601.671	32598.17
601.878	32537.99
602.085	32458.17
602.291	32362.14
602.498	32250.37
602.704	32112.12
602.911	31956.7
603.117	31775.45
603.324	31573.45
603.53	31355.95
603.737	31122.17
603.943	30892.94
604.15	30648.5
604.356	30392.57
604.562	30139.05
604.769	29872.97
604.975	29613.45
605.181	29346.15
605.388	29089.03
605.594	28826.52
605.8	28567.57
606.007	28312.37
606.213	28040.7
606.419	27766.23
606.625	27491.99
606.832	27233.15
607.038	26971.05
607.244	26703.15
607.45	26431.1
607.656	26150.08
607.863	25868.14
608.069	25581.3
608.275	25298.12
608.481	25010.48
608.687	24733.19
608.893	24462.66
609.099	24174.52
609.305	23883.61
609.511	23595.08
609.717	23310.19
609.923	23024.7
610.129	22733.95
610.335	22437.39
610.541	22136.61
610.747	21838.34
610.953	21538.77
611.159	21223.7
611.365	20904.97
611.571	20587.01
611.776	20267.72
611.982	19943.45
612.188	19614.72
612.394	19297.85
612.6	18976.65
612.806	18649.3
613.011	18323.85
613.217	17991.92
613.423	17672.39
613.628	17352.03
613.834	17041.63
614.04	16730.46
614.246	16426.3
614.451	16131.54
614.657	15835.54
614.862	15541.77
615.068	15265.35
615.274	14985.66
615.479	14720.41
615.685	14459.7
615.89	14207.37
616.096	13940.34
616.301	13683.95
616.507	13420.01
616.712	13155.1
616.918	12887.94
617.123	12624.5
617.329	12348.85
617.534	12075.12
617.74	11794.03
617.945	11503.9
618.15	11204.37
618.356	10742.39
618.561	9879.92
618.766	8838.19
618.972	7764.79
619.177	6717.19
619.382	5695.74
619.588	4703.83
619.793	4111.74
619.998	3419.59
620.203	2590.6
620.408	1577.59
620.614	586.3
