Data from test1_MAYP1115451__37__10-14-50-274.txt Node

Date: Wed Jun 12 10:14:50 MDT 2024
User: Modes Lab
Spectrometer: MAYP111545
Trigger mode: 0
Integration Time (sec): 8.000000E-3
Scans to average: 5
Electric dark correction enabled: true
Nonlinearity correction enabled: false
Boxcar width: 5
XAxis mode: Wavelengths
Number of Pixels in Spectrum: 2068
>>>>>Begin Spectral Data<<<<<
165.214	162
165.449	161.83
165.683	171.58
165.918	180.47
166.152	187.16
166.387	192.64
166.621	124.8
166.856	162.4
167.09	181.62
167.325	204.49
167.559	220.96
167.794	235.58
168.028	243.11
168.263	243.87
168.497	244.04
168.732	244.55
168.966	245.27
169.2	246.67
169.435	249.33
169.669	250.29
169.903	252.84
170.138	254.67
170.372	256
170.606	257.91
170.841	259.29
171.075	260.15
171.309	261.93
171.544	263.73
171.778	265.29
172.012	266.55
172.246	268.55
172.48	270.38
172.715	272.69
172.949	273.2
173.183	275.25
173.417	276.96
173.651	279.16
173.885	280.8
174.119	281.2
174.354	282.18
174.588	281.53
174.822	281.65
175.056	281.31
175.29	281.22
175.524	282.33
175.758	282.29
175.992	282.07
176.226	282.02
176.46	281.71
176.694	282.42
176.928	283.51
177.162	286.31
177.396	286.51
177.63	288.64
177.864	289.33
178.097	290.31
178.331	291.18
178.565	292.96
178.799	293.65
179.033	293.58
179.267	294.69
179.5	294.75
179.734	293.89
179.968	295.67
180.202	294.69
180.436	295.71
180.669	296.11
180.903	296.69
181.137	297.25
181.371	297.76
181.604	300.24
181.838	301.84
182.072	303.36
182.305	304.95
182.539	305.35
182.772	306.75
183.006	308.18
183.24	309.47
183.473	313.16
183.707	314.35
183.94	316.07
184.174	316.75
184.408	316.49
184.641	317.36
184.875	319.16
185.108	321.36
185.342	323.24
185.575	323.44
185.808	325.45
186.042	324.85
186.275	326.38
186.509	327.76
186.742	330.2
186.976	331.95
187.209	333.09
187.442	334.07
187.676	334.24
187.909	335.6
188.142	337.05
188.376	338.22
188.609	338.96
188.842	340.55
189.076	343.2
189.309	343.33
189.542	345.75
189.775	347.47
190.009	349.64
190.242	352.05
190.475	353.75
190.708	355.4
190.941	357.27
191.174	359.15
191.408	360.58
191.641	360.87
191.874	363.18
192.107	364.55
192.34	367.13
192.573	368.2
192.806	370.47
193.039	371.6
193.272	374.36
193.505	374.84
193.738	377.64
193.971	379.8
194.204	381.15
194.437	381.8
194.67	383.49
194.903	384.67
195.136	387.05
195.369	388.42
195.602	389.69
195.835	391.45
196.068	394.42
196.301	395.24
196.533	397.11
196.766	399.89
196.999	402.91
197.232	404.29
197.465	406.51
197.698	407.89
197.93	410.04
198.163	413.31
198.396	415.47
198.629	417.35
198.861	419.76
199.094	422.07
199.327	425.33
199.559	428.09
199.792	430.85
200.025	432.29
200.257	435.29
200.49	436.51
200.723	438.87
200.955	441.02
201.188	443.25
201.42	445.71
201.653	447.36
201.886	448.27
202.118	450.31
202.351	452.78
202.583	455.38
202.816	457.4
203.048	460.95
203.281	462.24
203.513	465.05
203.745	466.95
203.978	468.4
204.21	470.55
204.443	472.15
204.675	473.15
204.907	474.85
205.14	476.84
205.372	479.07
205.605	480.78
205.837	483.31
206.069	485.45
206.302	487.65
206.534	490.56
206.766	493.05
206.998	495.33
207.231	498.64
207.463	500.64
207.695	504.24
207.927	506.44
208.159	509.16
208.392	510.15
208.624	511.82
208.856	513.98
209.088	515.8
209.32	518.36
209.552	522.4
209.784	524.49
210.017	526.65
210.249	527.24
210.481	529.78
210.713	531.51
210.945	535.55
211.177	537.45
211.409	540.11
211.641	542.13
211.873	543.25
212.105	542.84
212.337	544.47
212.569	547.09
212.801	549.82
213.033	551.11
213.264	553
213.496	554.55
213.728	557.55
213.96	559.67
214.192	562.13
214.424	565.71
214.656	569.2
214.887	570.36
215.119	572.71
215.351	574.11
215.583	575.62
215.815	577.67
216.046	580.07
216.278	580.95
216.51	582.73
216.741	584.58
216.973	584.51
217.205	585.96
217.436	587.84
217.668	589.07
217.9	590.76
218.131	592.47
218.363	594.6
218.595	595.44
218.826	597.29
219.058	597.55
219.289	598.16
219.521	599.67
219.752	600.25
219.984	601.45
220.215	602.84
220.447	603.75
220.678	605.11
220.91	606.22
221.141	607.22
221.373	608.27
221.604	610.44
221.836	611.76
222.067	614.04
222.298	616.13
222.53	617.49
222.761	618.4
222.993	620.15
223.224	620.95
223.455	621.38
223.686	622.24
223.918	622.42
224.149	623.67
224.38	624.07
224.612	623.78
224.843	624.89
225.074	625.45
225.305	625.35
225.536	625.56
225.768	625.36
225.999	625.27
226.23	626.18
226.461	627.33
226.692	627.8
226.923	628.95
227.155	630.42
227.386	630.44
227.617	629.47
227.848	629.35
228.079	631.69
228.31	632.65
228.541	632.76
228.772	633.24
229.003	633.62
229.234	633.27
229.465	633.45
229.696	632.29
229.927	631.84
230.158	634.69
230.389	634.64
230.62	633.87
230.85	635.04
231.081	635.65
231.312	634.8
231.543	634.67
231.774	634.25
232.005	634.62
232.236	634.85
232.466	634.44
232.697	633.82
232.928	634.96
233.159	635.2
233.389	633.69
233.62	634.04
233.851	633.11
234.082	631.95
234.312	633.33
234.543	632.96
234.774	632.84
235.004	634.07
235.235	633.91
235.466	634.31
235.696	633.05
235.927	632.67
236.157	632.07
236.388	632.64
236.618	634.35
236.849	633.11
237.08	633.36
237.31	633.64
237.541	633.24
237.771	631.71
238.002	631.07
238.232	628.89
238.463	630.04
238.693	629.85
238.923	630.96
239.154	629.93
239.384	629.24
239.615	628.91
239.845	628.64
240.075	628.05
240.306	628.73
240.536	629.13
240.766	631.24
240.997	630.82
241.227	630.35
241.457	630.02
241.687	629.49
241.918	629.96
242.148	629.44
242.378	628.09
242.608	627.25
242.839	627.18
243.069	626.24
243.299	625.36
243.529	626.25
243.759	626.53
243.989	625.18
244.22	624.42
244.45	623.76
244.68	623.49
244.91	623.22
245.14	622.93
245.37	621.98
245.6	621.76
245.83	621.73
246.06	619.22
246.29	618.98
246.52	619.69
246.75	619.73
246.98	619.22
247.21	617.8
247.44	617.55
247.67	616.76
247.9	616.6
248.13	615.65
248.359	614.25
248.589	613.89
248.819	612.44
249.049	610.22
249.279	610.2
249.509	608.89
249.738	607.67
249.968	607.47
250.198	606.8
250.428	606.89
250.657	604.98
250.887	604.22
251.117	602.69
251.347	603.51
251.576	603.51
251.806	602.38
252.036	601.02
252.265	601.64
252.495	600.84
252.725	600.96
252.954	600.07
253.184	602.09
253.413	601.89
253.643	602.36
253.873	600.58
254.102	600.87
254.332	600.02
254.561	601.16
254.791	598.93
255.02	599.55
255.25	598.62
255.479	597.29
255.708	595.11
255.938	594.89
256.167	593.44
256.397	593.56
256.626	592.2
256.856	590.91
257.085	590.24
257.314	591.69
257.544	589.4
257.773	588.27
258.002	588.25
258.232	588.2
258.461	587.24
258.69	587.71
258.919	585.73
259.149	585.18
259.378	584.82
259.607	583.58
259.836	581.65
260.065	582.13
260.295	581.98
260.524	580.33
260.753	579.98
260.982	579.42
261.211	578.56
261.44	578.55
261.669	577.93
261.899	577.56
262.128	576.73
262.357	575.51
262.586	575.04
262.815	573.96
263.044	573.09
263.273	574.47
263.502	574.98
263.731	573.4
263.96	571.56
264.189	569.75
264.418	568.11
264.646	566.76
264.875	566.91
265.104	564.85
265.333	563.73
265.562	562.96
265.791	559.16
266.02	556.82
266.249	556.65
266.477	556.18
266.706	556.15
266.935	556.36
267.164	555.13
267.393	553.64
267.621	553.18
267.85	553.09
268.079	552.87
268.307	552.18
268.536	551.4
268.765	550.85
268.993	550.73
269.222	549.75
269.451	550
269.679	551
269.908	551.15
270.137	551.35
270.365	552.07
270.594	553.44
270.822	552.62
271.051	553.18
271.279	553.38
271.508	554.18
271.736	554.87
271.965	554.31
272.193	554.67
272.422	554.13
272.65	553.13
272.879	551.53
273.107	548.58
273.336	549.58
273.564	548.09
273.792	546.71
274.021	545.55
274.249	544.93
274.477	543.25
274.706	542.29
274.934	541.18
275.162	540
275.391	539.36
275.619	539.11
275.847	536.71
276.075	536.22
276.304	535.49
276.532	534.15
276.76	532.4
276.988	531.33
277.216	530.91
277.445	530.16
277.673	528.55
277.901	527.67
278.129	526.67
278.357	526.42
278.585	526.6
278.813	526.58
279.041	527.04
279.269	525.85
279.497	526.45
279.725	524.84
279.954	525.02
280.182	525.44
280.41	525.64
280.637	525.93
280.865	525.65
281.093	523.91
281.321	522.45
281.549	521.75
281.777	521.75
282.005	520.62
282.233	521.16
282.461	520.35
282.689	519.89
282.916	518.49
283.144	518.15
283.372	517.84
283.6	517.75
283.828	517.56
284.055	516
284.283	515.36
284.511	515.6
284.739	514.02
284.966	514.51
285.194	514.58
285.422	513.84
285.649	512.6
285.877	511.98
286.105	510.95
286.332	510.69
286.56	511.8
286.788	512.42
287.015	510.96
287.243	510
287.47	508.78
287.698	507.62
287.925	507.15
288.153	506.58
288.381	505.62
288.608	505.36
288.836	504
289.063	501.85
289.29	500.31
289.518	499.78
289.745	499.22
289.973	499.62
290.2	499.33
290.428	499.58
290.655	499.45
290.882	499.55
291.11	498.45
291.337	498.27
291.564	497.4
291.792	497.04
292.019	496.58
292.246	496.76
292.473	495.15
292.701	494.29
292.928	493.24
293.155	493.55
293.382	493.38
293.61	493.42
293.837	492.45
294.064	492.76
294.291	492.69
294.518	492.29
294.745	492.38
294.972	492.38
295.2	491.64
295.427	492.65
295.654	491.95
295.881	489.98
296.108	489.25
296.335	488.64
296.562	487.76
296.789	486.76
297.016	487.22
297.243	486.35
297.47	484.91
297.697	484.53
297.924	482.55
298.151	481.42
298.378	482.58
298.604	482.98
298.831	482.31
299.058	481.35
299.285	480.04
299.512	478.76
299.739	477.55
299.966	476.71
300.192	476.16
300.419	475.27
300.646	474.96
300.873	472.35
301.099	472.09
301.326	472.33
301.553	472.22
301.78	473.89
302.006	473.2
302.233	473.15
302.46	472.75
302.686	472.53
302.913	472.09
303.14	470.29
303.366	471.11
303.593	469.29
303.819	469.27
304.046	468.76
304.272	467.36
304.499	467.51
304.725	466
304.952	465.87
305.179	465.75
305.405	466.4
305.631	467.95
305.858	468.16
306.084	468.29
306.311	468.45
306.537	467.8
306.764	466.73
306.99	465.89
307.216	465.82
307.443	465.85
307.669	465.49
307.895	465.02
308.122	463.91
308.348	463.84
308.574	463.35
308.801	462.6
309.027	463.84
309.253	463.44
309.479	462.78
309.706	462.56
309.932	462.22
310.158	461.6
310.384	461.65
310.61	461.93
310.837	461.15
311.063	460.87
311.289	461.24
311.515	459.98
311.741	460.49
311.967	460.25
312.193	461.47
312.419	461.76
312.645	462.07
312.871	461.11
313.097	460.15
313.323	459.45
313.549	459.71
313.775	459.04
314.001	459.85
314.227	458.75
314.453	459.51
314.679	458.75
314.905	458.27
315.131	458.29
315.357	459.24
315.583	458.71
315.809	458.98
316.034	459.69
316.26	459.33
316.486	459.36
316.712	462.15
316.938	462.85
317.163	463.4
317.389	464.47
317.615	464.55
317.841	465.07
318.066	467.42
318.292	467.96
318.518	467.71
318.743	469
318.969	469.49
319.195	469.4
319.42	469.05
319.646	470.27
319.872	471.16
320.097	473.07
320.323	473.36
320.548	474.09
320.774	477.16
320.999	479.29
321.225	480.38
321.45	481.2
321.676	481.44
321.901	484.2
322.127	485.71
322.352	486.76
322.578	487.36
322.803	489.62
323.029	490.82
323.254	491.07
323.479	491.8
323.705	493.84
323.93	495.89
324.155	498.38
324.381	499.27
324.606	501.18
324.831	503.18
325.057	504.82
325.282	506.51
325.507	509.35
325.732	511.65
325.958	514.45
326.183	517.38
326.408	519.36
326.633	523.69
326.858	527
327.084	529.25
327.309	531.69
327.534	535.29
327.759	537.62
327.984	540.04
328.209	541.35
328.434	543.38
328.659	545.31
328.884	549.4
329.109	550.64
329.334	552.82
329.559	556.09
329.784	559.71
330.009	562.04
330.234	565.8
330.459	567.69
330.684	572.78
330.909	575.78
331.134	580.78
331.359	584.89
331.584	588.44
331.809	593.09
332.034	597.15
332.259	600.89
332.483	606.05
332.708	610.84
332.933	617.29
333.158	622
333.383	629.15
333.607	633.64
333.832	638.93
334.057	643.62
334.282	648.6
334.506	654.04
334.731	660.16
334.956	666.75
335.18	671.78
335.405	676.25
335.63	682.75
335.854	689.02
336.079	694.35
336.303	698.53
336.528	705.2
336.753	711.22
336.977	716.25
337.202	722.78
337.426	728.67
337.651	736.16
337.875	742.45
338.1	749.02
338.324	753.93
338.549	759.98
338.773	767.4
338.997	774.64
339.222	782.33
339.446	789.18
339.671	795.84
339.895	803.11
340.119	810.22
340.344	817.49
340.568	823.67
340.792	830.76
341.017	838.87
341.241	846.84
341.465	854.73
341.689	861.02
341.914	869.47
342.138	877.96
342.362	884.73
342.586	892.13
342.811	900.25
343.035	910.31
343.259	920.29
343.483	929.42
343.707	937.75
343.931	946.78
344.155	956.13
344.38	965.8
344.604	974.55
344.828	985.56
345.052	995.31
345.276	1006.82
345.5	1015.82
345.724	1026.02
345.948	1035.51
346.172	1044.91
346.396	1055.69
346.62	1066.67
346.844	1077.47
347.068	1088.53
347.292	1099.27
347.515	1110.13
347.739	1121.29
347.963	1131.38
348.187	1142.25
348.411	1153.05
348.635	1162.69
348.859	1170.58
349.082	1180.42
349.306	1189.75
349.53	1199.65
349.754	1209.16
349.977	1219.78
350.201	1230.04
350.425	1240.98
350.649	1251.42
350.872	1262.67
351.096	1274.73
351.32	1287.65
351.543	1300.4
351.767	1313.42
351.99	1325.25
352.214	1335.18
352.438	1345.22
352.661	1356.98
352.885	1369.62
353.108	1379.45
353.332	1390.29
353.555	1403.25
353.779	1414.85
354.002	1427.13
354.226	1438.22
354.449	1449.91
354.673	1463.44
354.896	1477.29
355.12	1489.6
355.343	1499.29
355.566	1511.36
355.79	1524.65
356.013	1536.44
356.237	1549.05
356.46	1559.25
356.683	1571.58
356.907	1584.76
357.13	1597.65
357.353	1610.8
357.576	1622.16
357.8	1635.18
358.023	1649.53
358.246	1661.51
358.469	1674.78
358.693	1687.2
358.916	1700.71
359.139	1712.75
359.362	1724.11
359.585	1738.25
359.808	1749.15
360.031	1761.93
360.255	1776.73
360.478	1789.95
360.701	1803
360.924	1817.89
361.147	1832.87
361.37	1848.04
361.593	1864.24
361.816	1878.33
362.039	1890.64
362.262	1903.58
362.485	1917.87
362.708	1931.82
362.931	1945.78
363.154	1959.62
363.377	1972.96
363.599	1985.47
363.822	1997.56
364.045	2011.62
364.268	2026.53
364.491	2041.71
364.714	2058.75
364.936	2071.84
365.159	2086.56
365.382	2099.44
365.605	2115.18
365.828	2133.84
366.05	2149.49
366.273	2164.07
366.496	2179.24
366.718	2192.4
366.941	2208.18
367.164	2223.89
367.386	2240.6
367.609	2255.29
367.832	2275.36
368.054	2291.64
368.277	2302.58
368.5	2318.02
368.722	2335.75
368.945	2352.02
369.167	2369.29
369.39	2384.49
369.612	2399.2
369.835	2415
370.057	2434.09
370.28	2449.04
370.502	2465.98
370.725	2485.55
370.947	2505.22
371.169	2522.45
371.392	2539.73
371.614	2556.82
371.837	2573.95
372.059	2593.29
372.281	2612.4
372.504	2627.73
372.726	2642.78
372.948	2658.22
373.171	2674.05
373.393	2688.67
373.615	2709.69
373.837	2727.51
374.06	2745.64
374.282	2763.98
374.504	2778.38
374.726	2796.6
374.948	2815.85
375.17	2834.69
375.393	2856.27
375.615	2874.98
375.837	2896.58
376.059	2914.71
376.281	2935.07
376.503	2956.36
376.725	2975.05
376.947	2998.09
377.169	3015.87
377.391	3034.76
377.613	3058.56
377.835	3079.42
378.057	3100.27
378.279	3119.51
378.501	3138.15
378.723	3157.04
378.945	3178.65
379.167	3200.29
379.389	3222.82
379.611	3247
379.833	3270.69
380.054	3293.42
380.276	3317.84
380.498	3341.67
380.72	3363.95
380.942	3388.73
381.163	3414.89
381.385	3439.62
381.607	3463.87
381.829	3490.38
382.05	3513.64
382.272	3540.36
382.494	3565.05
382.716	3590.27
382.937	3617.35
383.159	3647.53
383.381	3674.51
383.602	3698.84
383.824	3726.76
384.045	3756.93
384.267	3782.95
384.488	3812.51
384.71	3837.13
384.932	3862.4
385.153	3889.53
385.375	3916
385.596	3941.38
385.818	3968.73
386.039	3997.73
386.261	4024.58
386.482	4052.67
386.703	4080.05
386.925	4109.95
387.146	4139.91
387.368	4170.18
387.589	4196.55
387.81	4223.16
388.032	4253.91
388.253	4281.84
388.474	4309.47
388.696	4335.53
388.917	4364
389.138	4392.96
389.359	4421.45
389.581	4451.15
389.802	4483.45
390.023	4516.25
390.244	4545.85
390.465	4576.02
390.687	4607.89
390.908	4637.73
391.129	4673.64
391.35	4704.91
391.571	4737.84
391.792	4767.49
392.013	4797.64
392.234	4825.2
392.455	4855.45
392.677	4889.4
392.898	4919.4
393.119	4947.56
393.34	4980.67
393.561	5011.07
393.782	5045.2
394.003	5076.71
394.223	5112.73
394.444	5143.4
394.665	5179
394.886	5210.33
395.107	5244.18
395.328	5278.47
395.549	5315.69
395.77	5352.07
395.99	5386.02
396.211	5422.96
396.432	5456.29
396.653	5487.8
396.874	5526.55
397.094	5559.98
397.315	5597.29
397.536	5629.24
397.757	5663.75
397.977	5701.24
398.198	5735.47
398.419	5769.02
398.639	5796.33
398.86	5832.27
399.081	5867.45
399.301	5901.09
399.522	5935.18
399.742	5969.82
399.963	6006.16
400.184	6038.96
400.404	6072.62
400.625	6106.78
400.845	6143.73
401.066	6185.47
401.286	6216
401.507	6251.75
401.727	6286.95
401.948	6325.76
402.168	6361.29
402.388	6401.02
402.609	6436.91
402.829	6469.76
403.05	6505.27
403.27	6541.18
403.49	6572.11
403.711	6610.22
403.931	6648.53
404.151	6680.85
404.372	6713.2
404.592	6749.29
404.812	6781.51
405.032	6818.44
405.253	6856.69
405.473	6892.71
405.693	6928.95
405.913	6966.44
406.133	7004.78
406.353	7039.62
406.574	7080.76
406.794	7117.85
407.014	7155.31
407.234	7194.6
407.454	7231.31
407.674	7267.56
407.894	7302.71
408.114	7337.09
408.334	7372.33
408.554	7407.25
408.774	7445.05
408.994	7485.87
409.214	7523.24
409.434	7561.29
409.654	7599.6
409.874	7639.89
410.094	7676.91
410.314	7718
410.534	7753.56
410.754	7791.35
410.974	7830.35
411.193	7864.82
411.413	7899.13
411.633	7935.33
411.853	7974.8
412.073	8013.16
412.292	8053.91
412.512	8092.2
412.732	8131.65
412.952	8176.16
413.171	8221.91
413.391	8261.38
413.611	8304.09
413.831	8342.07
414.05	8385.05
414.27	8425.02
414.489	8464.4
414.709	8504.65
414.929	8551.02
415.148	8592.8
415.368	8632.89
415.587	8672.15
415.807	8711.78
416.026	8754.85
416.246	8802.6
416.465	8850.56
416.685	8890.55
416.904	8930.84
417.124	8969.73
417.343	9009.29
417.563	9050.4
417.782	9098.96
418.002	9145.16
418.221	9196.15
418.44	9238.95
418.66	9283.29
418.879	9324.16
419.098	9371.13
419.318	9416.6
419.537	9464.75
419.756	9511.45
419.976	9556.42
420.195	9594.71
420.414	9632.82
420.633	9674.67
420.853	9717.84
421.072	9758.27
421.291	9805.18
421.51	9846.64
421.729	9892.42
421.948	9934.42
422.168	9973.31
422.387	10017.67
422.606	10067.47
422.825	10111.53
423.044	10155.58
423.263	10204.62
423.482	10248.69
423.701	10295.45
423.92	10340.6
424.139	10386.51
424.358	10435.36
424.577	10481.51
424.796	10523
425.015	10565.13
425.234	10612.67
425.453	10660.05
425.672	10705.38
425.891	10757.13
426.11	10794.25
426.328	10840.45
426.547	10879.73
426.766	10917.04
426.985	10962.49
427.204	11012.65
427.422	11057.18
427.641	11104.67
427.86	11153.73
428.079	11202.25
428.297	11244.13
428.516	11291.04
428.735	11343.49
428.954	11398.36
429.172	11453.69
429.391	11510.62
429.61	11557.78
429.828	11604.75
430.047	11654.02
430.265	11696.55
430.484	11743.71
430.703	11793.65
430.921	11844.11
431.14	11884.51
431.358	11926.38
431.577	11972.4
431.795	12012.8
432.014	12068.42
432.232	12123.13
432.451	12167.64
432.669	12214.15
432.887	12257.56
433.106	12304.04
433.324	12349.33
433.543	12396.96
433.761	12449.95
433.979	12497.24
434.198	12547.53
434.416	12587.45
434.634	12629.87
434.853	12680.31
435.071	12731.53
435.289	12775.6
435.507	12821.16
435.726	12869.71
435.944	12920.51
436.162	12964.33
436.38	13006.89
436.598	13047.89
436.817	13092.47
437.035	13142.15
437.253	13192.67
437.471	13241.31
437.689	13290.76
437.907	13338.33
438.125	13387.67
438.343	13432.71
438.561	13479.44
438.78	13532.04
438.998	13584.78
439.216	13638.95
439.434	13684.4
439.652	13719.96
439.869	13767.45
440.087	13818.42
440.305	13866.04
440.523	13917.31
440.741	13968.05
440.959	14019.95
441.177	14070.47
441.395	14119.33
441.613	14166.35
441.831	14215.42
442.048	14268.13
442.266	14315.2
442.484	14362.51
442.702	14415.91
442.919	14461.27
443.137	14511.8
443.355	14558.02
443.573	14603.27
443.79	14656
444.008	14705
444.226	14753.27
444.443	14804.95
444.661	14852.44
444.879	14904.09
445.096	14944.45
445.314	14987.96
445.532	15033.24
445.749	15084.04
445.967	15133.56
446.184	15174.16
446.402	15220.65
446.619	15268.25
446.837	15318.45
447.054	15359.98
447.272	15407.02
447.489	15452.87
447.707	15504.11
447.924	15548.65
448.141	15597.56
448.359	15645.78
448.576	15697.64
448.794	15751.51
449.011	15797.13
449.228	15840.55
449.446	15891.85
449.663	15941.04
449.88	15997.42
450.098	16039.8
450.315	16091.31
450.532	16139.69
450.749	16185.35
450.967	16230.31
451.184	16269.55
451.401	16319.4
451.618	16369.71
451.835	16421.29
452.052	16461.33
452.27	16510.24
452.487	16564.15
452.704	16613.93
452.921	16654.85
453.138	16701.29
453.355	16749.02
453.572	16803.64
453.789	16853.62
454.006	16901.96
454.223	16952.25
454.44	17000.75
454.657	17041.11
454.874	17089.98
455.091	17135.25
455.308	17188.51
455.525	17246.29
455.742	17302.35
455.959	17342.22
456.176	17390.42
456.393	17440.49
456.609	17480.38
456.826	17532.69
457.043	17580.84
457.26	17627.15
457.477	17675.18
457.693	17717.93
457.91	17755.2
458.127	17794.33
458.344	17845.65
458.56	17884.36
458.777	17919.35
458.994	17966.11
459.21	18003.75
459.427	18047.38
459.644	18080.95
459.86	18115.64
460.077	18155.71
460.294	18191.44
460.51	18217.38
460.727	18252.27
460.943	18292.49
461.16	18332.8
461.376	18367.2
461.593	18399
461.809	18432.6
462.026	18474.24
462.242	18515.62
462.459	18552.71
462.675	18597.4
462.892	18643.04
463.108	18683.09
463.324	18721.67
463.541	18765.84
463.757	18809.45
463.974	18857.55
464.19	18908.09
464.406	18952.38
464.623	18998.98
464.839	19045.65
465.055	19087.35
465.271	19138.18
465.488	19184.05
465.704	19228.89
465.92	19275.25
466.136	19326.51
466.353	19377.58
466.569	19419.15
466.785	19470.56
467.001	19520.62
467.217	19577.27
467.433	19637.15
467.649	19692.91
467.865	19754.53
468.082	19815.58
468.298	19882.67
468.514	19943.58
468.73	20009.02
468.946	20077.73
469.162	20147.18
469.378	20211.02
469.594	20276.15
469.81	20334.51
470.026	20403.36
470.242	20459.71
470.457	20528.82
470.673	20590.69
470.889	20660.85
471.105	20727.35
471.321	20793.02
471.537	20854.58
471.753	20929.18
471.968	20994.71
472.184	21070.38
472.4	21144.55
472.616	21227.55
472.832	21299.24
473.047	21372.89
473.263	21443.38
473.479	21510.04
473.694	21589.76
473.91	21668.16
474.126	21741.56
474.341	21821.47
474.557	21890.4
474.773	21951.13
474.988	22010.93
475.204	22082.05
475.42	22151.15
475.635	22223.45
475.851	22300.38
476.066	22363.38
476.282	22434.45
476.497	22494.8
476.713	22551.33
476.928	22617.49
477.144	22693.42
477.359	22765.98
477.575	22832.07
477.79	22899.53
478.005	22953.76
478.221	23014.73
478.436	23081.15
478.651	23127.31
478.867	23187.89
479.082	23258.56
479.297	23325.25
479.513	23382.93
479.728	23434.16
479.943	23483.31
480.159	23534.58
480.374	23599.8
480.589	23648.84
480.804	23703.45
481.019	23761.71
481.235	23814.78
481.45	23859.71
481.665	23898.82
481.88	23939.36
482.095	23996.16
482.31	24060.35
482.525	24113.87
482.741	24163.25
482.956	24215.65
483.171	24256.04
483.386	24307.35
483.601	24350.35
483.816	24397.13
484.031	24444.73
484.246	24498.15
484.461	24540.58
484.676	24579
484.891	24618.69
485.105	24654.93
485.32	24693.38
485.535	24747.44
485.75	24793.04
485.965	24832.75
486.18	24878.53
486.395	24924.78
486.609	24965.51
486.824	25008.56
487.039	25047.15
487.254	25088.82
487.469	25129.98
487.683	25180.56
487.898	25213.87
488.113	25244.93
488.327	25289.07
488.542	25323.96
488.757	25367.71
488.972	25399.69
489.186	25431.58
489.401	25460.95
489.615	25501.15
489.83	25540.24
490.045	25572.04
490.259	25610.6
490.474	25649.13
490.688	25688.09
490.903	25721.15
491.117	25744.45
491.332	25780.22
491.546	25821.45
491.761	25857.64
491.975	25882.69
492.19	25914.11
492.404	25943.82
492.618	25967.96
492.833	25992.25
493.047	26020.24
493.262	26048.8
493.476	26079.04
493.69	26108.49
493.905	26132.84
494.119	26164.64
494.333	26188.78
494.547	26211.31
494.762	26236.27
494.976	26266.47
495.19	26300.09
495.404	26327.91
495.619	26356.16
495.833	26381.65
496.047	26405.11
496.261	26417.8
496.475	26431
496.689	26444.75
496.903	26451.53
497.117	26451.44
497.332	26440.98
497.546	26428.78
497.76	26412.64
497.974	26396.76
498.188	26383.04
498.402	26364.13
498.616	26357.4
498.83	26348.29
499.044	26347.55
499.258	26343.87
499.472	26344.96
499.685	26351.62
499.899	26363.11
500.113	26382.02
500.327	26394.36
500.541	26410.4
500.755	26438.38
500.969	26451.75
501.183	26470.24
501.396	26485.71
501.61	26509.29
501.824	26530.42
502.038	26556.93
502.251	26576.42
502.465	26596.13
502.679	26616.76
502.892	26638.64
503.106	26649.42
503.32	26678.56
503.533	26699.62
503.747	26723.82
503.961	26746.44
504.174	26773.55
504.388	26799.18
504.602	26831.84
504.815	26859.04
505.029	26898.84
505.242	26935.56
505.456	26986.45
505.669	27026.38
505.883	27072.04
506.096	27125.49
506.31	27181.16
506.523	27236.36
506.736	27289.89
506.95	27345.51
507.163	27396.96
507.377	27456.55
507.59	27510.75
507.803	27565.96
508.017	27627.04
508.23	27692.56
508.443	27749.51
508.657	27812.62
508.87	27876.55
509.083	27941.25
509.296	28023.49
509.51	28108.47
509.723	28185.78
509.936	28268.93
510.149	28351.78
510.363	28434.76
510.576	28524.93
510.789	28618.95
511.002	28709.76
511.215	28807.16
511.428	28910.89
511.641	29002.56
511.854	29102.47
512.067	29201.73
512.28	29308.49
512.493	29414.62
512.707	29522.31
512.92	29620.29
513.132	29722.33
513.345	29826.15
513.558	29929.11
513.771	30035.64
513.984	30139.4
514.197	30243.53
514.41	30357
514.623	30461.82
514.836	30565.2
515.049	30669.91
515.262	30783.93
515.474	30888.87
515.687	30996.82
515.9	31104.65
516.113	31204.36
516.325	31307.51
516.538	31406.18
516.751	31499.05
516.964	31586.13
517.176	31673.02
517.389	31761.38
517.602	31843.13
517.814	31932.73
518.027	32009.51
518.24	32090.38
518.452	32166.09
518.665	32238.84
518.877	32315.53
519.09	32389.49
519.303	32467.05
519.515	32540.51
519.728	32617.64
519.94	32693.87
520.153	32758.13
520.365	32832.02
520.578	32897.87
520.79	32966.25
521.002	33030.38
521.215	33086.78
521.427	33142.47
521.64	33197.38
521.852	33261.35
522.064	33308.27
522.277	33358.91
522.489	33412.98
522.701	33468.02
522.914	33516.42
523.126	33561.51
523.338	33612.91
523.551	33661.45
523.763	33710.85
523.975	33769.55
524.187	33816.6
524.399	33858.67
524.612	33903.85
524.824	33946.51
525.036	33984.35
525.248	34028.65
525.46	34069.67
525.672	34107.04
525.884	34147.16
526.096	34181.36
526.308	34213.87
526.521	34238
526.733	34278.24
526.945	34314.6
527.157	34347.36
527.369	34384.56
527.581	34408.78
527.793	34440.18
528.004	34476.11
528.216	34515.98
528.428	34540.8
528.64	34570.07
528.852	34602.44
529.064	34632.09
529.276	34651.38
529.488	34678.78
529.699	34697.82
529.911	34736.29
530.123	34778.67
530.335	34793.51
530.547	34821.6
530.758	34861.38
530.97	34895.18
531.182	34929.22
531.393	34971.11
531.605	35016.84
531.817	35050.93
532.029	35083.76
532.24	35111.22
532.452	35130.11
532.663	35173.71
532.875	35193.22
533.087	35217.33
533.298	35236.15
533.51	35249.64
533.721	35264.24
533.933	35275.18
534.144	35294.09
534.356	35309.91
534.567	35317.95
534.779	35337.33
534.99	35346.05
535.202	35367.49
535.413	35384.22
535.624	35407.27
535.836	35435.31
536.047	35452.71
536.259	35470.35
536.47	35490.27
536.681	35507.93
536.893	35535.42
537.104	35552.98
537.315	35576.51
537.526	35594.35
537.738	35616.11
537.949	35625
538.16	35644.6
538.371	35658.69
538.582	35674.93
538.794	35685.93
539.005	35701.11
539.216	35716.78
539.427	35733.38
539.638	35747.55
539.849	35756.42
540.06	35771.36
540.272	35798.2
540.483	35810.36
540.694	35826
540.905	35840.95
541.116	35867.98
541.327	35890.47
541.538	35904.44
541.749	35919.89
541.96	35935
542.17	35950.55
542.381	35962.53
542.592	35969.82
542.803	35979.11
543.014	35986.11
543.225	35984.02
543.436	35982.93
543.647	35991.82
543.857	35999.84
544.068	36002.6
544.279	36002.02
544.49	36002
544.701	36005.44
544.911	36017.4
545.122	36032.73
545.333	36049.24
545.543	36073.2
545.754	36084.2
545.965	36090.56
546.175	36099.31
546.386	36109.67
546.597	36128.8
546.807	36155.33
547.018	36169.87
547.229	36179.35
547.439	36184.07
547.65	36189.69
547.86	36190.04
548.071	36202.44
548.281	36213.38
548.492	36226.64
548.702	36231.2
548.913	36235.42
549.123	36236.35
549.333	36242.73
549.544	36244.95
549.754	36245.58
549.965	36257.25
550.175	36274.47
550.385	36283.13
550.596	36299.15
550.806	36303.71
551.016	36323.64
551.227	36338.73
551.437	36346.53
551.647	36362.95
551.857	36371.15
552.068	36394.96
552.278	36409.09
552.488	36419.65
552.698	36424.8
552.908	36431.8
553.119	36436.29
553.329	36432.45
553.539	36440.16
553.749	36440.78
553.959	36441.89
554.169	36448.15
554.379	36447.98
554.589	36448.78
554.799	36447.98
555.009	36457.27
555.219	36452.4
555.429	36460.09
555.639	36468.49
555.849	36472.76
556.059	36487.09
556.269	36480.95
556.479	36482.82
556.689	36476.29
556.899	36487.2
557.109	36482.71
557.319	36480.87
557.528	36480.58
557.738	36475.15
557.948	36466.69
558.158	36457.2
558.368	36453.38
558.577	36449.27
558.787	36446.8
558.997	36445.45
559.207	36429.84
559.416	36426.78
559.626	36412.75
559.836	36407.02
560.045	36406.45
560.255	36406.25
560.465	36400.47
560.674	36400.82
560.884	36406.51
561.093	36401.31
561.303	36401.29
561.512	36388.82
561.722	36392.62
561.932	36395.73
562.141	36396.16
562.351	36393.91
562.56	36401.44
562.769	36415.04
562.979	36411.58
563.188	36413.16
563.398	36418.78
563.607	36417.71
563.817	36430.15
564.026	36420.4
564.235	36412.82
564.445	36406.91
564.654	36403.07
564.863	36392.8
565.073	36377.31
565.282	36371.64
565.491	36352.85
565.7	36341.91
565.91	36333.2
566.119	36314.75
566.328	36311.38
566.537	36315.16
566.746	36313.53
566.956	36306.35
567.165	36290.62
567.374	36283.95
567.583	36270.69
567.792	36267.93
568.001	36243.73
568.21	36223.27
568.419	36201.98
568.628	36182.67
568.837	36148.98
569.046	36115.15
569.255	36084.18
569.464	36070.87
569.673	36040.89
569.882	36010.38
570.091	35985.47
570.3	35979.05
570.509	35974.33
570.718	35968.42
570.927	35957.35
571.135	35956.4
571.344	35961.85
571.553	35972.42
571.762	35964.29
571.971	35969.55
572.18	35978.67
572.388	35970.78
572.597	35955.31
572.806	35932.73
573.014	35915.31
573.223	35892.2
573.432	35871.6
573.641	35837.78
573.849	35805.55
574.058	35787.71
574.266	35746.96
574.475	35720.6
574.684	35709.35
574.892	35710.51
575.101	35700.35
575.309	35686.13
575.518	35681.67
575.726	35672.95
575.935	35667.89
576.143	35657.11
576.352	35642.75
576.56	35640.75
576.769	35627.13
576.977	35605.02
577.186	35570.15
577.394	35550.58
577.602	35532.13
577.811	35517.71
578.019	35500.84
578.228	35483.95
578.436	35466.24
578.644	35446.55
578.852	35418.96
579.061	35392.16
579.269	35372.25
579.477	35357.09
579.685	35345.55
579.894	35336.8
580.102	35313.73
580.31	35292.15
580.518	35280.85
580.726	35267.16
580.935	35255.02
581.143	35242.56
581.351	35224.2
581.559	35196.89
581.767	35174.82
581.975	35150.04
582.183	35119.36
582.391	35097.56
582.599	35072.42
582.807	35046.38
583.015	35025.98
583.223	34998.84
583.431	34978.33
583.639	34960.65
583.847	34952
584.055	34932.31
584.263	34912.42
584.471	34890.91
584.678	34878.35
584.886	34862.38
585.094	34832.15
585.302	34800.18
585.51	34779.75
585.718	34759.53
585.925	34740.29
586.133	34717.09
586.341	34703.8
586.549	34679.33
586.756	34664.98
586.964	34628.15
587.172	34606.96
587.379	34588.42
587.587	34569.84
587.795	34553.51
588.002	34534.11
588.21	34517.58
588.417	34496.49
588.625	34465.75
588.833	34448.4
589.04	34412.87
589.248	34395.76
589.455	34380.42
589.663	34365.02
589.87	34347.87
590.078	34324.93
590.285	34297.02
590.492	34262.89
590.7	34246.62
590.907	34234.2
591.115	34205.15
591.322	34191.24
591.529	34167.05
591.737	34129.04
591.944	34096.71
592.151	34067.47
592.359	34040.45
592.566	34020.58
592.773	34003.95
592.981	33969.78
593.188	33939.64
593.395	33917.89
593.602	33896.73
593.809	33872.16
594.017	33843.53
594.224	33824.02
594.431	33801.55
594.638	33768.16
594.845	33732.93
595.052	33687.64
595.259	33662.56
595.466	33631.25
595.673	33611.82
595.88	33584.8
596.088	33568.07
596.295	33554.36
596.502	33527.73
596.709	33493
596.915	33476.36
597.122	33453.75
597.329	33440.76
597.536	33413.05
597.743	33390.95
597.95	33358.49
598.157	33331.13
598.364	33290.31
598.571	33252.62
598.777	33218.29
598.984	33176.89
599.191	33125.07
599.398	33081.82
599.605	33040.25
599.811	32985.04
600.018	32935.44
600.225	32888.82
600.431	32842.53
600.638	32803.11
600.845	32767.13
601.052	32728.44
601.258	32699.78
601.465	32661.04
601.671	32610.15
601.878	32539.47
602.085	32473.05
602.291	32372.47
602.498	32248.82
602.704	32105.6
602.911	31945.49
603.117	31758.29
603.324	31558.89
603.53	31338.96
603.737	31108.8
603.943	30879.58
604.15	30641.2
604.356	30385.87
604.562	30125.91
604.769	29866.55
604.975	29611.09
605.181	29354.38
605.388	29094.67
605.594	28835.96
605.8	28576.96
606.007	28310.27
606.213	28031.76
606.419	27753.45
606.625	27485.16
606.832	27226.35
607.038	26968.35
607.244	26703.2
607.45	26427.76
607.656	26152.02
607.863	25870.44
608.069	25588.29
608.275	25319.36
608.481	25044.91
608.687	24765.84
608.893	24472.13
609.099	24177.78
609.305	23885.69
609.511	23602.84
609.717	23313.91
609.923	23020.04
610.129	22724.05
610.335	22426.27
610.541	22118.64
610.747	21817.24
610.953	21511.42
611.159	21214.55
611.365	20905.89
611.571	20592
611.776	20266.89
611.982	19947.29
612.188	19634.27
612.394	19311.73
612.6	18991.49
612.806	18664.44
613.011	18337.95
613.217	18013.82
613.423	17693.96
613.628	17376.22
613.834	17057.82
614.04	16746.89
614.246	16435.96
614.451	16131.53
614.657	15838.27
614.862	15552.78
615.068	15278.05
615.274	15000.75
615.479	14735.87
615.685	14465.16
615.89	14201.27
616.096	13944.76
616.301	13678.89
616.507	13422.29
616.712	13158.89
616.918	12894.58
617.123	12622.25
617.329	12338.65
617.534	12060.25
617.74	11780.09
617.945	11499
618.15	11201.75
618.356	10729.6
618.561	9868.71
618.766	8825.82
618.972	7752.27
619.177	6704.82
619.382	5684.11
619.588	4696.02
619.793	4104.06
619.998	3408.47
620.203	2575.2
620.408	1568.09
620.614	581.6
