Data from test1_MAYP1115451__10__10-14-41-124.txt Node

Date: Wed Jun 12 10:14:41 MDT 2024
User: Modes Lab
Spectrometer: MAYP111545
Trigger mode: 0
Integration Time (sec): 8.000000E-3
Scans to average: 5
Electric dark correction enabled: true
Nonlinearity correction enabled: false
Boxcar width: 5
XAxis mode: Wavelengths
Number of Pixels in Spectrum: 2068
>>>>>Begin Spectral Data<<<<<
165.214	164.27
165.449	163.82
165.683	172.51
165.918	182.02
166.152	189.37
166.387	194.99
166.621	126.66
166.856	165.55
167.09	184.59
167.325	208.24
167.559	224.24
167.794	238.46
168.028	245.97
168.263	247.66
168.497	247.68
168.732	248.32
168.966	249.26
169.2	250.82
169.435	252.26
169.669	254.28
169.903	256.64
170.138	258.39
170.372	259.48
170.606	262.01
170.841	263.19
171.075	264.32
171.309	264.73
171.544	265.33
171.778	267.35
172.012	269.01
172.246	270.57
172.48	271.28
172.715	272.72
172.949	274.88
173.183	276.22
173.417	277.28
173.651	278.81
173.885	280.82
174.119	281.86
174.354	281.86
174.588	283.12
174.822	282.32
175.056	282.26
175.29	281.57
175.524	281.75
175.758	281.62
175.992	282.39
176.226	282.08
176.46	281.84
176.694	282.35
176.928	283.52
177.162	283.13
177.396	284.42
177.63	286.15
177.864	287.61
178.097	288.21
178.331	288.9
178.565	290.33
178.799	291.55
179.033	293.02
179.267	294.53
179.5	295.15
179.734	295.72
179.968	297.22
180.202	297.81
180.436	298.77
180.669	299.73
180.903	301.55
181.137	302.61
181.371	303.48
181.604	302.9
181.838	304.32
182.072	305.15
182.305	306.93
182.539	307.22
182.772	308.44
183.006	310.62
183.24	311.55
183.473	314.92
183.707	315.64
183.94	317.21
184.174	319.68
184.408	320.08
184.641	322.06
184.875	322.62
185.108	324.22
185.342	325.82
185.575	326.77
185.808	328.88
186.042	327.46
186.275	329.3
186.509	330.21
186.742	332.15
186.976	334.04
187.209	334.95
187.442	336.86
187.676	337.77
187.909	338.39
188.142	339.42
188.376	340.59
188.609	341.79
188.842	342.59
189.076	344.17
189.309	345.33
189.542	347.01
189.775	347.75
190.009	349.1
190.242	350.84
190.475	353.06
190.708	354.84
190.941	355.5
191.174	357.19
191.408	358.84
191.641	360.84
191.874	362.39
192.107	363.84
192.34	366.39
192.573	368.28
192.806	370.86
193.039	372.1
193.272	373.75
193.505	375.88
193.738	378.19
193.971	379.06
194.204	381.52
194.437	383.33
194.67	384.26
194.903	386.44
195.136	387.92
195.369	389.04
195.602	391.5
195.835	394.01
196.068	397.15
196.301	397.5
196.533	399.97
196.766	400.42
196.999	401.41
197.232	403.55
197.465	406.39
197.698	408.77
197.93	411.97
198.163	413.5
198.396	415.42
198.629	416.66
198.861	420.19
199.094	422.24
199.327	425.04
199.559	428.01
199.792	430.22
200.025	430.97
200.257	433.22
200.49	435.13
200.723	437.72
200.955	439.41
201.188	442.08
201.42	444.73
201.653	448.66
201.886	451.52
202.118	454.33
202.351	456.92
202.583	460.12
202.816	462.61
203.048	464.52
203.281	466.46
203.513	468.88
203.745	471.66
203.978	473.48
204.21	474.73
204.443	475.84
204.675	477.97
204.907	479.73
205.14	481.68
205.372	482.99
205.605	484.55
205.837	486.75
206.069	489.84
206.302	490.42
206.534	492.33
206.766	494.46
206.998	496.48
207.231	497.93
207.463	501.42
207.695	504.02
207.927	506.5
208.159	509.1
208.392	511.06
208.624	513.15
208.856	515.86
209.088	517.92
209.32	520.53
209.552	522.59
209.784	525.22
210.017	526.12
210.249	528.28
210.481	529.92
210.713	531.66
210.945	534.3
211.177	536.08
211.409	538.72
211.641	540.64
211.873	541.77
212.105	544.61
212.337	546.04
212.569	548.48
212.801	550.53
213.033	552.39
213.264	554.3
213.496	556.26
213.728	557.77
213.96	559.64
214.192	562.72
214.424	564.08
214.656	565.97
214.887	568.82
215.119	571.88
215.351	572.73
215.583	575.77
215.815	577.93
216.046	579.41
216.278	580.52
216.51	581.3
216.741	581.39
216.973	582.86
217.205	585.17
217.436	586.24
217.668	587.33
217.9	590.08
218.131	590.1
218.363	592.1
218.595	593.5
218.826	595.1
219.058	597.04
219.289	599.39
219.521	602.53
219.752	603.37
219.984	604.99
220.215	605.82
220.447	604.55
220.678	606.41
220.91	607.79
221.141	609.32
221.373	611.13
221.604	611.61
221.836	612.62
222.067	614.22
222.298	614.3
222.53	614.3
222.761	614.37
222.993	616.19
223.224	617.88
223.455	617.97
223.686	619.1
223.918	618.59
224.149	620.44
224.38	621.28
224.612	619.72
224.843	622.21
225.074	624.08
225.305	625.9
225.536	626.15
225.768	626.3
225.999	627.01
226.23	627.93
226.461	629.62
226.692	630.28
226.923	631.64
227.155	635.21
227.386	634.61
227.617	635.13
227.848	634.02
228.079	636.7
228.31	637.52
228.541	638.48
228.772	638.01
229.003	639.48
229.234	638.28
229.465	637.99
229.696	636.62
229.927	637.7
230.158	637.59
230.389	637.92
230.62	636.99
230.85	636.9
231.081	636.13
231.312	636.48
231.543	634.92
231.774	635.86
232.005	635.02
232.236	634.21
232.466	633.5
232.697	633.73
232.928	633.93
233.159	633.77
233.389	634.15
233.62	634.75
233.851	634.93
234.082	635.22
234.312	636.15
234.543	636.88
234.774	637.88
235.004	637.59
235.235	637.93
235.466	638.42
235.696	638.79
235.927	638.53
236.157	639.22
236.388	638.84
236.618	639.26
236.849	638.59
237.08	637.19
237.31	636.28
237.541	637.15
237.771	636.42
238.002	635.68
238.232	635.04
238.463	634.5
238.693	633.62
238.923	632.68
239.154	631.26
239.384	630.1
239.615	630.64
239.845	629.15
240.075	627.93
240.306	627.5
240.536	628.61
240.766	628.5
240.997	628.32
241.227	627.48
241.457	626.68
241.687	626.7
241.918	626.84
242.148	626.22
242.378	627.88
242.608	627.84
242.839	627.52
243.069	626.72
243.299	625.37
243.529	625.68
243.759	624.26
243.989	625.86
244.22	624.97
244.45	624.61
244.68	625.08
244.91	624.08
245.14	623.19
245.37	622.77
245.6	622.15
245.83	621.72
246.06	620.39
246.29	620.46
246.52	619.81
246.75	619.5
246.98	618.64
247.21	617.39
247.44	617.24
247.67	616.92
247.9	614.22
248.13	613.97
248.359	613.15
248.589	613.77
248.819	613.72
249.049	611.46
249.279	612.15
249.509	610.86
249.738	609.92
249.968	608.88
250.198	607.62
250.428	608.22
250.657	607.06
250.887	606.72
251.117	606.64
251.347	605.39
251.576	606.15
251.806	604.68
252.036	604.88
252.265	604.68
252.495	604.21
252.725	603.81
252.954	603.68
253.184	603.13
253.413	603.12
253.643	600.72
253.873	600.06
254.102	598.73
254.332	598.21
254.561	597.61
254.791	597.44
255.02	597.12
255.25	596.21
255.479	594.84
255.708	594.22
255.938	593.22
256.167	592.79
256.397	592.21
256.626	592.57
256.856	591.08
257.085	590.13
257.314	588.99
257.544	588.24
257.773	588.61
258.002	588.52
258.232	588.19
258.461	587.26
258.69	585.53
258.919	584.99
259.149	583.01
259.378	584.3
259.607	583.57
259.836	582.53
260.065	581.7
260.295	580.9
260.524	581.24
260.753	579.13
260.982	579.04
261.211	579.7
261.44	580.1
261.669	580.33
261.899	578.48
262.128	578.53
262.357	577.21
262.586	576.19
262.815	574.44
263.044	572.86
263.273	577.53
263.502	577.01
263.731	576.48
263.96	575.02
264.189	574.73
264.418	573.59
264.646	571.7
264.875	571.32
265.104	569.82
265.333	569.81
265.562	568.97
265.791	563.77
266.02	561.59
266.249	560.92
266.477	558.82
266.706	556.99
266.935	555.33
267.164	556.01
267.393	555.84
267.621	555.86
267.85	554.95
268.079	554.26
268.307	553.1
268.536	553.12
268.765	552.41
268.993	552.7
269.222	551.73
269.451	552.9
269.679	551.97
269.908	552.5
270.137	552.06
270.365	551.99
270.594	552.46
270.822	553.28
271.051	553.37
271.279	553.01
271.508	553.99
271.736	555.48
271.965	556.06
272.193	557.1
272.422	556.22
272.65	556.97
272.879	555.46
273.107	554.64
273.336	553.5
273.564	553.81
273.792	552.64
274.021	550.81
274.249	548.95
274.477	547.02
274.706	544.44
274.934	543.75
275.162	540.61
275.391	540.42
275.619	539.48
275.847	538.32
276.075	536.5
276.304	535.79
276.532	535.44
276.76	532.61
276.988	530.7
277.216	530.22
277.445	527.9
277.673	528.52
277.901	528.88
278.129	528.21
278.357	527.52
278.585	527.06
278.813	526.44
279.041	525.62
279.269	527.55
279.497	527.68
279.725	527.72
279.954	528.66
280.182	529.13
280.41	527.5
280.637	526.5
280.865	526.06
281.093	526.06
281.321	524.77
281.549	524.15
281.777	524.01
282.005	524.33
282.233	523.35
282.461	522.08
282.689	521.21
282.916	520.41
283.144	518.86
283.372	519.73
283.6	518.55
283.828	518.06
284.055	517.73
284.283	516.61
284.511	515.97
284.739	515.64
284.966	516.26
285.194	514.88
285.422	513.61
285.649	514.46
285.877	512.92
286.105	512.02
286.332	512.39
286.56	513.19
286.788	512.92
287.015	511.86
287.243	511.59
287.47	510.46
287.698	510.01
287.925	511.66
288.153	510.75
288.381	509.06
288.608	508.99
288.836	508.84
289.063	506.57
289.29	505.39
289.518	504.44
289.745	503.92
289.973	503.92
290.2	503.44
290.428	502.59
290.655	502.1
290.882	502.5
291.11	502.15
291.337	500.42
291.564	501.42
291.792	500.9
292.019	501.33
292.246	500.04
292.473	497.61
292.701	498.21
292.928	497.01
293.155	496.22
293.382	496.68
293.61	495.1
293.837	495.3
294.064	494.92
294.291	494.21
294.518	492.64
294.745	492.59
294.972	493.66
295.2	491.32
295.427	491.02
295.654	490.55
295.881	489.48
296.108	489.68
296.335	489.55
296.562	488.61
296.789	489.04
297.016	488.15
297.243	486.95
297.47	485.37
297.697	485.06
297.924	484.13
298.151	483.9
298.378	483.97
298.604	483.68
298.831	483.64
299.058	481.86
299.285	481.08
299.512	481.46
299.739	480.59
299.966	480.48
300.192	480.21
300.419	479.75
300.646	478.93
300.873	477.12
301.099	476.88
301.326	474.52
301.553	474.46
301.78	474.35
302.006	474.1
302.233	474.5
302.46	473.62
302.686	473.84
302.913	473.01
303.14	472.52
303.366	472.72
303.593	471.82
303.819	471.42
304.046	470.61
304.272	469.35
304.499	467.99
304.725	467.7
304.952	467.42
305.179	466.82
305.405	467.9
305.631	467.37
305.858	466.99
306.084	466.5
306.311	467.99
306.537	467.77
306.764	466.81
306.99	467.66
307.216	466.62
307.443	467.59
307.669	467.01
307.895	466.95
308.122	467.32
308.348	466.61
308.574	466.7
308.801	465.88
309.027	465.37
309.253	465.22
309.479	464.77
309.706	465.75
309.932	464.9
310.158	464.26
310.384	462.13
310.61	462.26
310.837	462.75
311.063	461.99
311.289	461.68
311.515	462.61
311.741	462.5
311.967	462.24
312.193	461.97
312.419	461.92
312.645	462.3
312.871	462.72
313.097	462.26
313.323	462.72
313.549	462.81
313.775	462.12
314.001	461.41
314.227	461.84
314.453	461.93
314.679	462.37
314.905	461.62
315.131	461.62
315.357	462.77
315.583	462.66
315.809	462.84
316.034	463.42
316.26	464.73
316.486	466.19
316.712	466.64
316.938	467.3
317.163	468.24
317.389	470.37
317.615	471.01
317.841	470.61
318.066	471.24
318.292	471.44
318.518	471.64
318.743	471.42
318.969	471.95
319.195	473.15
319.42	472.32
319.646	472.37
319.872	472.13
320.097	473.48
320.323	474.22
320.548	475.86
320.774	478.62
320.999	481.13
321.225	482.79
321.45	483.5
321.676	484.22
321.901	487.12
322.127	486.95
322.352	489.15
322.578	490.19
322.803	492.06
323.029	493.08
323.254	490.93
323.479	491.12
323.705	493.28
323.93	494.66
324.155	496.61
324.381	498.7
324.606	501.35
324.831	502.7
325.057	504.1
325.282	505.72
325.507	508.26
325.732	512.81
325.958	515.9
326.183	518.13
326.408	519.82
326.633	524.35
326.858	525.7
327.084	528.28
327.309	531.1
327.534	533.66
327.759	536.5
327.984	539.12
328.209	541.52
328.434	544.28
328.659	546.82
328.884	551.48
329.109	552.9
329.334	555.12
329.559	557.64
329.784	560.75
330.009	564.06
330.234	567.86
330.459	571.21
330.684	574.81
330.909	579.21
331.134	582.5
331.359	585.97
331.584	591.02
331.809	596.28
332.034	600.77
332.259	604.53
332.483	610.24
332.708	615.21
332.933	620.02
333.158	624.24
333.383	628.88
333.607	633.53
333.832	637.97
334.057	641.46
334.282	647.04
334.506	652.81
334.731	659.46
334.956	665.42
335.18	669.99
335.405	674.86
335.63	680.04
335.854	685.7
336.079	691.88
336.303	698.26
336.528	704.72
336.753	710.3
336.977	716.3
337.202	722.88
337.426	728.95
337.651	736.42
337.875	743.57
338.1	751.32
338.324	757.33
338.549	763.88
338.773	771.92
338.997	778.17
339.222	785.3
339.446	792.7
339.671	797.92
339.895	802.86
340.119	810.62
340.344	819.19
340.568	825.75
340.792	835.04
341.017	843.1
341.241	848.9
341.465	856.81
341.689	865.93
341.914	874.95
342.138	884.37
342.362	895.37
342.586	904.28
342.811	910.46
343.035	919.24
343.259	925.46
343.483	933.37
343.707	943.57
343.931	953.7
344.155	961.84
344.38	972.13
344.604	981.01
344.828	989.42
345.052	997.99
345.276	1008.19
345.5	1018.19
345.724	1028.3
345.948	1039.99
346.172	1048.59
346.396	1058.15
346.62	1070.28
346.844	1077.75
347.068	1086.3
347.292	1096.9
347.515	1109.04
347.739	1122.41
347.963	1130.42
348.187	1142.92
348.411	1152.59
348.635	1163.22
348.859	1172.48
349.082	1180.3
349.306	1189.44
349.53	1201.37
349.754	1212.62
349.977	1222.57
350.201	1230.72
350.425	1244.7
350.649	1254.82
350.872	1266.5
351.096	1278.15
351.32	1292.68
351.543	1305.84
351.767	1320.17
351.99	1333.37
352.214	1344.1
352.438	1354.73
352.661	1365.13
352.885	1376.01
353.108	1385.41
353.332	1396.21
353.555	1409.3
353.779	1418.35
354.002	1431.46
354.226	1442.04
354.449	1453.93
354.673	1465.82
354.896	1477.95
355.12	1491.46
355.343	1502.3
355.566	1513.79
355.79	1525.08
356.013	1536.64
356.237	1549.32
356.46	1559.79
356.683	1572.32
356.907	1583.32
357.13	1594.17
357.353	1606.3
357.576	1618.04
357.8	1631.17
358.023	1646.04
358.246	1662.02
358.469	1672.04
358.693	1686.04
358.916	1699.26
359.139	1713.04
359.362	1727.08
359.585	1740.77
359.808	1752.7
360.031	1767.53
360.255	1781.21
360.478	1795.22
360.701	1804.97
360.924	1818.24
361.147	1829.55
361.37	1841.52
361.593	1857.04
361.816	1869.01
362.039	1883.52
362.262	1896.28
362.485	1909.55
362.708	1923.44
362.931	1936.04
363.154	1951.26
363.377	1967.5
363.599	1982.53
363.822	1996.13
364.045	2006.35
364.268	2021.1
364.491	2035.88
364.714	2051.62
364.936	2066.57
365.159	2080.92
365.382	2096.79
365.605	2110.97
365.828	2127.84
366.05	2142.77
366.273	2159.53
366.496	2177.81
366.718	2195.32
366.941	2211.35
367.164	2226.64
367.386	2243.37
367.609	2259.88
367.832	2277.59
368.054	2296.13
368.277	2309.84
368.5	2324.86
368.722	2341.19
368.945	2354.13
369.167	2367.88
369.39	2384.1
369.612	2402.55
369.835	2416.66
370.057	2433.28
370.28	2446.88
370.502	2462.62
370.725	2479.72
370.947	2499.24
371.169	2517.44
371.392	2536.1
371.614	2552.53
371.837	2568.77
372.059	2586.62
372.281	2603.02
372.504	2621.97
372.726	2639.46
372.948	2657.32
373.171	2676.22
373.393	2692.84
373.615	2711.04
373.837	2730.33
374.06	2751.26
374.282	2770.3
374.504	2786.82
374.726	2809.01
374.948	2826.9
375.17	2845.79
375.393	2864.32
375.615	2882.41
375.837	2901.75
376.059	2921.01
376.281	2937.61
376.503	2953.82
376.725	2974.77
376.947	2993.97
377.169	3011.59
377.391	3030.93
377.613	3054.57
377.835	3073.64
378.057	3097.24
378.279	3117.79
378.501	3137.93
378.723	3163.7
378.945	3188.02
379.167	3210.79
379.389	3235.75
379.611	3260.52
379.833	3284.28
380.054	3306.73
380.276	3332.66
380.498	3355.46
380.72	3380.9
380.942	3407.32
381.163	3432.06
381.385	3458.3
381.607	3481.24
381.829	3504.48
382.05	3530.32
382.272	3555.12
382.494	3581.15
382.716	3605.39
382.937	3629.79
383.159	3654.57
383.381	3676.9
383.602	3701.97
383.824	3729.04
384.045	3756.26
384.267	3782.92
384.488	3806.92
384.71	3834.52
384.932	3858.64
385.153	3885.3
385.375	3914.46
385.596	3940.57
385.818	3969.53
386.039	3996.9
386.261	4023.92
386.482	4049.39
386.703	4077.72
386.925	4104.68
387.146	4131.95
387.368	4160.61
387.589	4190.66
387.81	4217.46
388.032	4247.9
388.253	4277.37
388.474	4305.22
388.696	4331.95
388.917	4361.7
389.138	4390.77
389.359	4422.95
389.581	4451.9
389.802	4484.44
390.023	4515.04
390.244	4544.1
390.465	4571.9
390.687	4599.66
390.908	4628.13
391.129	4662.81
391.35	4695.59
391.571	4726.42
391.792	4757.12
392.013	4789.44
392.234	4819.37
392.455	4851.61
392.677	4883.01
392.898	4917.72
393.119	4951.86
393.34	4987.55
393.561	5014.86
393.782	5050.82
394.003	5084.9
394.223	5119.42
394.444	5154.53
394.665	5190.13
394.886	5222.7
395.107	5259.75
395.328	5294.26
395.549	5331.66
395.77	5365.42
395.99	5401.75
396.211	5432.41
396.432	5466.39
396.653	5501.39
396.874	5531.75
397.094	5564.75
397.315	5596.86
397.536	5630.1
397.757	5661.92
397.977	5694.95
398.198	5729.53
398.419	5764.32
398.639	5797.39
398.86	5830.04
399.081	5862.66
399.301	5898.42
399.522	5932.99
399.742	5969.88
399.963	6007.66
400.184	6043.19
400.404	6078.75
400.625	6112.57
400.845	6149.08
401.066	6187.15
401.286	6227.35
401.507	6266.15
401.727	6303.79
401.948	6337.1
402.168	6369.52
402.388	6404.73
402.609	6442.73
402.829	6478.44
403.05	6515.41
403.27	6547.81
403.49	6581.77
403.711	6615.02
403.931	6647.06
404.151	6682.28
404.372	6718.41
404.592	6756.32
404.812	6787.5
405.032	6820.15
405.253	6853.1
405.473	6889.17
405.693	6926.24
405.913	6964.88
406.133	6999.57
406.353	7041.28
406.574	7076.66
406.794	7111.53
407.014	7148.7
407.234	7187.81
407.454	7226.97
407.674	7264.08
407.894	7298.61
408.114	7338.86
408.334	7372.66
408.554	7409.82
408.774	7441.66
408.994	7482.9
409.214	7523.79
409.434	7562.88
409.654	7601.72
409.874	7638.32
410.094	7675.44
410.314	7716.9
410.534	7750.82
410.754	7788.61
410.974	7827.21
411.193	7865.37
411.413	7901.5
411.633	7939.72
411.853	7978.5
412.073	8014.61
412.292	8053.41
412.512	8092.32
412.732	8130.41
412.952	8170.64
413.171	8209.33
413.391	8249.77
413.611	8292.88
413.831	8332.24
414.05	8371.81
414.27	8415.72
414.489	8460.19
414.709	8509.32
414.929	8554.42
415.148	8596.46
415.368	8635.66
415.587	8682.1
415.807	8725.26
416.026	8766.5
416.246	8810.73
416.465	8858.19
416.685	8899.44
416.904	8942.41
417.124	8977.81
417.343	9019.53
417.563	9065.39
417.782	9112.15
418.002	9158.82
418.221	9202.93
418.44	9247.02
418.66	9291.55
418.879	9332.02
419.098	9373.57
419.318	9420.55
419.537	9470.77
419.756	9516.88
419.976	9556.13
420.195	9602.06
420.414	9646.33
420.633	9687.95
420.853	9731.72
421.072	9778.15
421.291	9822.15
421.51	9867.33
421.729	9907.77
421.948	9947.35
422.168	9989.28
422.387	10036.13
422.606	10079.82
422.825	10116.3
423.044	10163.12
423.263	10209.35
423.482	10249.55
423.701	10292.75
423.92	10338.33
424.139	10388.33
424.358	10434.42
424.577	10479.52
424.796	10524.73
425.015	10569.86
425.234	10617.19
425.453	10658.48
425.672	10699.77
425.891	10745.01
426.11	10791.61
426.328	10837.06
426.547	10877.24
426.766	10919.33
426.985	10966.06
427.204	11017.04
427.422	11064.52
427.641	11112.1
427.86	11163.37
428.079	11211.44
428.297	11259.35
428.516	11305.24
428.735	11355.35
428.954	11402.92
429.172	11455.81
429.391	11499.3
429.61	11540.48
429.828	11588.95
430.047	11639.39
430.265	11683.72
430.484	11734.35
430.703	11783.19
430.921	11830.44
431.14	11870.44
431.358	11916.24
431.577	11959.42
431.795	12014.24
432.014	12066.3
432.232	12109.33
432.451	12157.7
432.669	12211.72
432.887	12254.52
433.106	12300.01
433.324	12346.39
433.543	12397.75
433.761	12449.66
433.979	12497.75
434.198	12543.26
434.416	12595.37
434.634	12647.3
434.853	12692.32
435.071	12734.59
435.289	12783.99
435.507	12830.32
435.726	12882.5
435.944	12930.53
436.162	12971.62
436.38	13015.93
436.598	13058.59
436.817	13099.02
437.035	13146.97
437.253	13194.84
437.471	13242.26
437.689	13289.61
437.907	13340.86
438.125	13389.57
438.343	13433.73
438.561	13480.46
438.78	13533.48
438.998	13585.82
439.216	13636.17
439.434	13679.97
439.652	13728.42
439.869	13774.88
440.087	13822.82
440.305	13869.68
440.523	13912.22
440.741	13962.1
440.959	14012.61
441.177	14065.53
441.395	14112.62
441.613	14161.62
441.831	14209.01
442.048	14246.42
442.266	14292.44
442.484	14341.82
442.702	14382.62
442.919	14434.42
443.137	14490.62
443.355	14545.97
443.573	14585.99
443.79	14633.97
444.008	14675.24
444.226	14723.21
444.443	14782.64
444.661	14835.9
444.879	14886.41
445.096	14937.17
445.314	14988.3
445.532	15033.26
445.749	15077.46
445.967	15130.73
446.184	15176.12
446.402	15227.79
446.619	15273.53
446.837	15315.88
447.054	15360.93
447.272	15405.82
447.489	15454.42
447.707	15497.24
447.924	15540.15
448.141	15585.64
448.359	15628.95
448.576	15674.86
448.794	15723.55
449.011	15775.48
449.228	15821.15
449.446	15875.64
449.663	15922.52
449.88	15973.44
450.098	16024.15
450.315	16074.37
450.532	16125.84
450.749	16179.08
450.967	16233.44
451.184	16283.08
451.401	16331.04
451.618	16387.22
451.835	16433.99
452.052	16481.1
452.27	16530.79
452.487	16580.81
452.704	16624.5
452.921	16668.06
453.138	16711.33
453.355	16759.17
453.572	16807.72
453.789	16863.64
454.006	16911.02
454.223	16958.12
454.44	17011.68
454.657	17056.37
454.874	17106.62
455.091	17157.12
455.308	17204.84
455.525	17259.66
455.742	17306.64
455.959	17344.32
456.176	17387.9
456.393	17431.55
456.609	17474.79
456.826	17523.37
457.043	17572.57
457.26	17620.1
457.477	17670.79
457.693	17716.77
457.91	17764.32
458.127	17809.82
458.344	17861.01
458.56	17900.93
458.777	17942.97
458.994	17987.17
459.21	18020.68
459.427	18056.53
459.644	18084.9
459.86	18116.81
460.077	18152.3
460.294	18180.81
460.51	18216.02
460.727	18250.82
460.943	18291.37
461.16	18328.02
461.376	18364.68
461.593	18405.93
461.809	18445.3
462.026	18489.24
462.242	18528.66
462.459	18570.35
462.675	18607.59
462.892	18650.02
463.108	18701.77
463.324	18740.04
463.541	18787.99
463.757	18834.82
463.974	18877.28
464.19	18921.46
464.406	18966.75
464.623	19017.99
464.839	19067.77
465.055	19117.99
465.271	19166.82
465.488	19198.57
465.704	19243.84
465.92	19288.46
466.136	19331.57
466.353	19381.68
466.569	19432.28
466.785	19481.79
467.001	19528.99
467.217	19584.35
467.433	19641.73
467.649	19697.7
467.865	19768.88
468.082	19832.33
468.298	19897.72
468.514	19958.66
468.73	20017.79
468.946	20086.04
469.162	20151.01
469.378	20217.55
469.594	20277.04
469.81	20340.66
470.026	20398.82
470.242	20459.92
470.457	20524.17
470.673	20584.17
470.889	20650.5
471.105	20724.26
471.321	20785.66
471.537	20847.3
471.753	20911.15
471.968	20986.53
472.184	21056.06
472.4	21130.68
472.616	21204.42
472.832	21278.77
473.047	21353.7
473.263	21426.32
473.479	21498.06
473.694	21572.24
473.91	21653.68
474.126	21733.5
474.341	21810.75
474.557	21887.35
474.773	21956.13
474.988	22022.15
475.204	22096.33
475.42	22172.84
475.635	22252.9
475.851	22320.1
476.066	22391.42
476.282	22460.81
476.497	22532.93
476.713	22601.62
476.928	22660.13
477.144	22731.62
477.359	22798.7
477.575	22855.13
477.79	22915.88
478.005	22966.59
478.221	23032.82
478.436	23094.53
478.651	23156.81
478.867	23214.26
479.082	23264.86
479.297	23322.48
479.513	23375.55
479.728	23431.52
479.943	23494.9
480.159	23545.72
480.374	23599.12
480.589	23651.22
480.804	23704.86
481.019	23753.61
481.235	23809.17
481.45	23859.53
481.665	23914.41
481.88	23969.41
482.095	24020.9
482.31	24070.12
482.525	24128.52
482.741	24187.59
482.956	24240.24
483.171	24291.97
483.386	24338.33
483.601	24374.3
483.816	24418.39
484.031	24464.02
484.246	24505.01
484.461	24548.72
484.676	24594.77
484.891	24627.84
485.105	24667.17
485.32	24707.15
485.535	24744.82
485.75	24792.12
485.965	24836.73
486.18	24884.13
486.395	24931.42
486.609	24972.08
486.824	25012.41
487.039	25055.62
487.254	25098.7
487.469	25143.62
487.683	25182.55
487.898	25225.72
488.113	25261.39
488.327	25296.02
488.542	25337.42
488.757	25365.02
488.972	25398.79
489.186	25441.64
489.401	25465.52
489.615	25499.75
489.83	25537.52
490.045	25570.57
490.259	25600.41
490.474	25631.21
490.688	25675.48
490.903	25697.53
491.117	25731.68
491.332	25763.42
491.546	25785.5
491.761	25817.13
491.975	25839.52
492.19	25864.35
492.404	25889.72
492.618	25921.84
492.833	25952.95
493.047	25977.02
493.262	26010.37
493.476	26045.48
493.69	26079.48
493.905	26110.15
494.119	26144.17
494.333	26188.75
494.547	26214.82
494.762	26246.01
494.976	26271.13
495.19	26301.41
495.404	26326.19
495.619	26352.72
495.833	26378.01
496.047	26403.13
496.261	26429.42
496.475	26448.26
496.689	26454.52
496.903	26460.57
497.117	26456.99
497.332	26457.75
497.546	26451.88
497.76	26444.7
497.974	26434.68
498.188	26414.77
498.402	26399.66
498.616	26379.95
498.83	26363.41
499.044	26359.81
499.258	26359.81
499.472	26368.21
499.685	26375.02
499.899	26383.7
500.113	26394.72
500.327	26402.37
500.541	26424.64
500.755	26444.99
500.969	26467.26
501.183	26493.46
501.396	26508.97
501.61	26528.61
501.824	26553.28
502.038	26572.08
502.251	26591.97
502.465	26617.46
502.679	26644.37
502.892	26663.68
503.106	26681.97
503.32	26698.5
503.533	26709.61
503.747	26734.99
503.961	26756.24
504.174	26784.73
504.388	26812.22
504.602	26833.37
504.815	26865.64
505.029	26906.9
505.242	26952.88
505.456	27000.08
505.669	27044.86
505.883	27099.32
506.096	27145.44
506.31	27208.57
506.523	27250.22
506.736	27301.84
506.95	27361.33
507.163	27416.26
507.377	27468.84
507.59	27516.97
507.803	27572.97
508.017	27635.01
508.23	27694.57
508.443	27758.97
508.657	27816.53
508.87	27888.95
509.083	27960.01
509.296	28039.28
509.51	28117.04
509.723	28195.57
509.936	28279.97
510.149	28364.9
510.363	28460.5
510.576	28551.04
510.789	28642.9
511.002	28735.15
511.215	28829.79
511.428	28924.86
511.641	29020.9
511.854	29113.66
512.067	29207.53
512.28	29316.02
512.493	29423.24
512.707	29523.97
512.92	29627.26
513.132	29734.52
513.345	29834.75
513.558	29935.24
513.771	30047.62
513.984	30158.88
514.197	30271.08
514.41	30386.3
514.623	30485.62
514.836	30587.1
515.049	30690.41
515.262	30802.48
515.474	30906.39
515.687	31016.53
515.9	31120.01
516.113	31212.41
516.325	31295.13
516.538	31384.21
516.751	31471.06
516.964	31561.97
517.176	31650.41
517.389	31743.52
517.602	31826.81
517.814	31920.22
518.027	32002.28
518.24	32085.92
518.452	32171.88
518.665	32255.28
518.877	32335.66
519.09	32409.01
519.303	32488.01
519.515	32556.15
519.728	32619.44
519.94	32677.61
520.153	32731.41
520.365	32806.79
520.578	32881.12
520.79	32939.3
521.002	33010.92
521.215	33075.24
521.427	33142.41
521.64	33187.17
521.852	33245.19
522.064	33302.46
522.277	33370.68
522.489	33425.06
522.701	33464.75
522.914	33507.46
523.126	33564.13
523.338	33607.92
523.551	33653.72
523.763	33706.35
523.975	33755.28
524.187	33805.42
524.399	33849.17
524.612	33889.52
524.824	33935.84
525.036	33977.84
525.248	34021.01
525.46	34056.93
525.672	34106.9
525.884	34143.46
526.096	34180.68
526.308	34222.82
526.521	34264.82
526.733	34303.59
526.945	34331.7
527.157	34361.37
527.369	34396.1
527.581	34430.53
527.793	34458.33
528.004	34476.5
528.216	34509.99
528.428	34525.7
528.64	34555.55
528.852	34584.06
529.064	34607.7
529.276	34638.95
529.488	34667.33
529.699	34698.75
529.911	34719.02
530.123	34754.37
530.335	34790.68
530.547	34817.22
530.758	34854.15
530.97	34890.62
531.182	34916.68
531.393	34951.44
531.605	34997.3
531.817	35036.48
532.029	35068.52
532.24	35105.15
532.452	35138.02
532.663	35151.55
532.875	35177.04
533.087	35203.73
533.298	35227.86
533.51	35259.46
533.721	35274.35
533.933	35287.35
534.144	35304.33
534.356	35325.9
534.567	35338.7
534.779	35360.53
534.99	35395.93
535.202	35417.55
535.413	35438.62
535.624	35452.48
535.836	35461.72
536.047	35481.61
536.259	35490.1
536.47	35498.33
536.681	35507.01
536.893	35526.15
537.104	35535.81
537.315	35549.59
537.526	35574.37
537.738	35587.06
537.949	35600.15
538.16	35618.01
538.371	35646.88
538.582	35667.13
538.794	35697.62
539.005	35716.48
539.216	35737.39
539.427	35751.17
539.638	35767.75
539.849	35773.62
540.06	35788.82
540.272	35813.04
540.483	35829.12
540.694	35834.57
540.905	35857.57
541.116	35867.99
541.327	35889.26
541.538	35905.46
541.749	35930.33
541.96	35939.42
542.17	35952.21
542.381	35963.1
542.592	35967.24
542.803	35972.82
543.014	35986.73
543.225	35986.95
543.436	35988.12
543.647	35998.59
543.857	36003.41
544.068	36001.93
544.279	36016.19
544.49	36023.15
544.701	36029.97
544.911	36052.46
545.122	36067.77
545.333	36079.82
545.543	36094.64
545.754	36107.37
545.965	36120.62
546.175	36132.21
546.386	36150.26
546.597	36160.55
546.807	36174.55
547.018	36196.41
547.229	36193.12
547.439	36199.62
547.65	36199.81
547.86	36201.19
548.071	36206.48
548.281	36197.02
548.492	36199.41
548.702	36201.73
548.913	36206.46
549.123	36205.95
549.333	36197.41
549.544	36199.22
549.754	36199.35
549.965	36214.26
550.175	36235.21
550.385	36259.22
550.596	36277.66
550.806	36297.42
551.016	36298.28
551.227	36307.57
551.437	36327.59
551.647	36349.24
551.857	36370.53
552.068	36392.24
552.278	36398.1
552.488	36399.39
552.698	36397.52
552.908	36414.21
553.119	36415.17
553.329	36434.22
553.539	36427.57
553.749	36427.95
553.959	36427.04
554.169	36420.48
554.379	36414.82
554.589	36419.66
554.799	36430.02
555.009	36440.42
555.219	36443.22
555.429	36454.75
555.639	36452.81
555.849	36460.95
556.059	36466.33
556.269	36463.62
556.479	36467.42
556.689	36475.92
556.899	36481.93
557.109	36476.59
557.319	36476.99
557.528	36468.39
557.738	36459.59
557.948	36463.12
558.158	36453.53
558.368	36447.44
558.577	36455.86
558.787	36455.01
558.997	36443.64
559.207	36428.06
559.416	36412.13
559.626	36399.88
559.836	36390.64
560.045	36380.55
560.255	36367.99
560.465	36370.22
560.674	36366.79
560.884	36357.86
561.093	36355.75
561.303	36356.48
561.512	36357.88
561.722	36363.24
561.932	36361.02
562.141	36365.82
562.351	36367.9
562.56	36371.41
562.769	36376.86
562.979	36378.99
563.188	36377.48
563.398	36374.22
563.607	36379.62
563.817	36381.22
564.026	36379.42
564.235	36370.81
564.445	36361.46
564.654	36357.01
564.863	36357.44
565.073	36356.39
565.282	36350.93
565.491	36348.19
565.7	36351.77
565.91	36337.1
566.119	36330.73
566.328	36313.81
566.537	36316.22
566.746	36299.73
566.956	36290.04
567.165	36275.24
567.374	36261.32
567.583	36252.81
567.792	36241.33
568.001	36217.99
568.21	36202.48
568.419	36179.97
568.628	36165.99
568.837	36145.95
569.046	36135.86
569.255	36110.61
569.464	36084.53
569.673	36056.35
569.882	36024.39
570.091	36000.93
570.3	35989.61
570.509	35974.13
570.718	35958.53
570.927	35945.08
571.135	35933.22
571.344	35924.15
571.553	35921.82
571.762	35919.72
571.971	35926.13
572.18	35924.53
572.388	35910.73
572.597	35901.93
572.806	35887.46
573.014	35884.53
573.223	35871.68
573.432	35843.9
573.641	35826.02
573.849	35801.99
574.058	35777.95
574.266	35746.44
574.475	35729.92
574.684	35729.64
574.892	35719.79
575.101	35709.62
575.309	35700.46
575.518	35691.22
575.726	35689.26
575.935	35677.97
576.143	35674.93
576.352	35658.48
576.56	35646.73
576.769	35629.86
576.977	35601.21
577.186	35571.86
577.394	35553.86
577.602	35526.92
577.811	35507.55
578.019	35497.86
578.228	35482.9
578.436	35455.61
578.644	35438.04
578.852	35419.93
579.061	35401.44
579.269	35391.7
579.477	35379.17
579.685	35361.9
579.894	35347.19
580.102	35332.46
580.31	35314.55
580.518	35293.57
580.726	35287.95
580.935	35279.37
581.143	35257.52
581.351	35234.08
581.559	35204.88
581.767	35182.84
581.975	35155.28
582.183	35120.35
582.391	35094.12
582.599	35059.99
582.807	35039.61
583.015	35020.72
583.223	34993.93
583.431	34979.75
583.639	34965.12
583.847	34952.39
584.055	34931.24
584.263	34919.15
584.471	34906.9
584.678	34891.68
584.886	34877.48
585.094	34847.04
585.302	34819.66
585.51	34804.48
585.718	34787.79
585.925	34763.57
586.133	34741.62
586.341	34720.21
586.549	34703.64
586.756	34684.57
586.964	34663.28
587.172	34648.59
587.379	34635.01
587.587	34605.3
587.795	34571.68
588.002	34542.37
588.21	34519.59
588.417	34492.79
588.625	34458.84
588.833	34425.93
589.04	34400.04
589.248	34380.02
589.455	34349.55
589.663	34328.55
589.87	34313.46
590.078	34307.62
590.285	34291.39
590.492	34271.92
590.7	34250.21
590.907	34243.24
591.115	34222.88
591.322	34203.7
591.529	34180.84
591.737	34161.99
591.944	34142.42
592.151	34111.9
592.359	34084.21
592.566	34048.61
592.773	34024.95
592.981	34006.86
593.188	33970.72
593.395	33946.53
593.602	33919.52
593.809	33891.86
594.017	33860.22
594.224	33831.1
594.431	33803.53
594.638	33774.75
594.845	33755.52
595.052	33728.13
595.259	33696.1
595.466	33679.01
595.673	33657.26
595.88	33639.17
596.088	33610.32
596.295	33584.53
596.502	33562.79
596.709	33546.13
596.915	33523.35
597.122	33503.99
597.329	33484.73
597.536	33454.28
597.743	33428.1
597.95	33402.77
598.157	33374.75
598.364	33347.12
598.571	33310.57
598.777	33263.04
598.984	33212.26
599.191	33150.64
599.398	33102.99
599.605	33049.46
599.811	33008.3
600.018	32958.42
600.225	32895.61
600.431	32841.57
600.638	32800.92
600.845	32774.46
601.052	32744.48
601.258	32718.5
601.465	32687.42
601.671	32625.92
601.878	32565.32
602.085	32476.01
602.291	32369.5
602.498	32262.5
602.704	32126.41
602.911	31967.88
603.117	31782.06
603.324	31581.61
603.53	31367.1
603.737	31131.13
603.943	30901.24
604.15	30653.93
604.356	30405.86
604.562	30152.48
604.769	29890.15
604.975	29625.79
605.181	29357.72
605.388	29093.55
605.594	28823.99
605.8	28555.52
606.007	28293.9
606.213	28021.19
606.419	27744.32
606.625	27476.57
606.832	27214.61
607.038	26952.01
607.244	26685.35
607.45	26416.32
607.656	26142.22
607.863	25860.26
608.069	25577.39
608.275	25304.92
608.481	25024.7
608.687	24738.55
608.893	24456.35
609.099	24166.68
609.305	23883.37
609.511	23600.68
609.717	23314.57
609.923	23023.26
610.129	22733.21
610.335	22433.06
610.541	22129.7
610.747	21832.72
610.953	21544.21
611.159	21235.04
611.365	20930.22
611.571	20606.53
611.776	20283.41
611.982	19962.93
612.188	19630.9
612.394	19310.86
612.6	18990.59
612.806	18664.22
613.011	18332.26
613.217	18003.7
613.423	17681.28
613.628	17351.55
613.834	17036.75
614.04	16723.1
614.246	16409.13
614.451	16115.9
614.657	15821.24
614.862	15535.32
615.068	15251.28
615.274	14975.35
615.479	14701.28
615.685	14439.35
615.89	14185.01
616.096	13927.35
616.301	13669.13
616.507	13409.61
616.712	13145.26
616.918	12879.61
617.123	12609.04
617.329	12339.79
617.534	12069.3
617.74	11790.95
617.945	11505.62
618.15	11201.21
618.356	10731.01
618.561	9868.86
618.766	8829.82
618.972	7756.93
619.177	6711.42
619.382	5691.7
619.588	4698.5
619.793	4101.65
619.998	3408.2
620.203	2575.43
620.408	1572.42
620.614	585.1
