Data from test1_MAYP1115451__44__10-14-52-562.txt Node

Date: Wed Jun 12 10:14:52 MDT 2024
User: Modes Lab
Spectrometer: MAYP111545
Trigger mode: 0
Integration Time (sec): 8.000000E-3
Scans to average: 5
Electric dark correction enabled: true
Nonlinearity correction enabled: false
Boxcar width: 5
XAxis mode: Wavelengths
Number of Pixels in Spectrum: 2068
>>>>>Begin Spectral Data<<<<<
165.214	162.63
165.449	162.23
165.683	172.23
165.918	180.88
166.152	187.25
166.387	192.25
166.621	124.54
166.856	162.89
167.09	181.89
167.325	204.92
167.559	221.56
167.794	235.71
168.028	243.69
168.263	245.02
168.497	244.58
168.732	245.45
168.966	246.43
169.2	246.42
169.435	248.69
169.669	250.69
169.903	253.05
170.138	254.42
170.372	255.45
170.606	256.98
170.841	257.14
171.075	259.02
171.309	260.43
171.544	262.12
171.778	265.8
172.012	266.98
172.246	267.62
172.48	268.65
172.715	270.27
172.949	272.72
173.183	274.71
173.417	277.52
173.651	279.47
173.885	281
174.119	282.16
174.354	281.71
174.588	282.89
174.822	283.98
175.056	283.45
175.29	283.98
175.524	283.14
175.758	282.85
175.992	281.71
176.226	281.78
176.46	281.94
176.694	282.52
176.928	283.87
177.162	283.98
177.396	284.89
177.63	287.38
177.864	288.58
178.097	289.67
178.331	290.52
178.565	291.09
178.799	292.16
179.033	293.03
179.267	294.29
179.5	294.83
179.734	295.58
179.968	295.47
180.202	295.22
180.436	296.11
180.669	297.76
180.903	298.07
181.137	299.4
181.371	299.51
181.604	300.56
181.838	301.14
182.072	302.16
182.305	303.58
182.539	305.03
182.772	306.96
183.006	307.05
183.24	307.42
183.473	311.29
183.707	313.8
183.94	314.83
184.174	315.74
184.408	315.96
184.641	318.18
184.875	318.78
185.108	320.83
185.342	321.89
185.575	324.07
185.808	325.45
186.042	324.42
186.275	325.22
186.509	327.52
186.742	329.76
186.976	330.96
187.209	331.89
187.442	333.58
187.676	333.42
187.909	334.63
188.142	335.87
188.376	337.71
188.609	339.36
188.842	340.89
189.076	342.23
189.309	343.31
189.542	345.32
189.775	346.89
190.009	349.98
190.242	352.63
190.475	354.52
190.708	357.2
190.941	358.45
191.174	360.62
191.408	361.98
191.641	363.16
191.874	364.67
192.107	366.67
192.34	367.98
192.573	369.03
192.806	370.51
193.039	372.29
193.272	373.38
193.505	374.36
193.738	376.18
193.971	378.18
194.204	380.4
194.437	382.65
194.67	385.07
194.903	385.85
195.136	387.4
195.369	389.18
195.602	389.89
195.835	391.07
196.068	394.72
196.301	396.18
196.533	398.76
196.766	400.36
196.999	402.32
197.232	403.56
197.465	405.74
197.698	407.34
197.93	409.8
198.163	412.03
198.396	414.71
198.629	415.87
198.861	417.94
199.094	418.94
199.327	421.4
199.559	423
199.792	424.71
200.025	427.58
200.257	430.69
200.49	432.43
200.723	436.16
200.955	437.83
201.188	439.82
201.42	442.49
201.653	445.02
201.886	447.58
202.118	449.92
202.351	453.74
202.583	456.45
202.816	458.12
203.048	460.71
203.281	461.8
203.513	463.85
203.745	467.14
203.978	468.96
204.21	471.52
204.443	473.71
204.675	475.54
204.907	477.51
205.14	479.96
205.372	481.22
205.605	484.38
205.837	486.83
206.069	488.71
206.302	490.11
206.534	492.31
206.766	493.4
206.998	494.8
207.231	497.94
207.463	498.8
207.695	501.36
207.927	504.36
208.159	505.67
208.392	508.07
208.624	510.62
208.856	513.34
209.088	515.32
209.32	517.54
209.552	519.96
209.784	522.07
210.017	524.92
210.249	527.45
210.481	530.25
210.713	531.94
210.945	533.42
211.177	535.58
211.409	537.12
211.641	539.56
211.873	542.27
212.105	544.65
212.337	546.56
212.569	548.71
212.801	549.4
213.033	550.25
213.264	552.09
213.496	554.85
213.728	558.12
213.96	560
214.192	561.29
214.424	563.63
214.656	565.56
214.887	566.02
215.119	568.43
215.351	570.47
215.583	573.09
215.815	576.11
216.046	576.23
216.278	577.56
216.51	579.42
216.741	580.89
216.973	581.22
217.205	582.72
217.436	585.58
217.668	587.58
217.9	589.2
218.131	589.54
218.363	590.54
218.595	593
218.826	593.69
219.058	595.89
219.289	598.2
219.521	599.36
219.752	600.78
219.984	602.14
220.215	602.58
220.447	603.11
220.678	605.56
220.91	607.16
221.141	609.18
221.373	610.29
221.604	611.38
221.836	613.45
222.067	615.85
222.298	617.25
222.53	618.27
222.761	620.18
222.993	621.65
223.224	621.89
223.455	622.96
223.686	622.22
223.918	622.52
224.149	622.45
224.38	621.4
224.612	622.22
224.843	621.63
225.074	622.09
225.305	622.32
225.536	623
225.768	623.96
225.999	624.16
226.23	626.8
226.461	628.07
226.692	628.74
226.923	630
227.155	631.51
227.386	632.54
227.617	632.4
227.848	632.27
228.079	634.02
228.31	634.58
228.541	634.38
228.772	633.56
229.003	634.31
229.234	634.27
229.465	634.72
229.696	633.36
229.927	634.11
230.158	634.63
230.389	633.49
230.62	632.74
230.85	632.58
231.081	632.65
231.312	634.07
231.543	633.23
231.774	634.74
232.005	634.31
232.236	635.03
232.466	634.67
232.697	634.74
232.928	635.96
233.159	636.16
233.389	636.25
233.62	637.02
233.851	636.92
234.082	636.74
234.312	636.34
234.543	635.56
234.774	635.36
235.004	635.89
235.235	635.82
235.466	635.31
235.696	635.58
235.927	635.94
236.157	634.85
236.388	634.31
236.618	635.89
236.849	634.71
237.08	635.25
237.31	634.96
237.541	634.67
237.771	633.51
238.002	632.8
238.232	630.14
238.463	630.34
238.693	630.14
238.923	629.91
239.154	628.25
239.384	628.8
239.615	628.98
239.845	628.85
240.075	628.2
240.306	629.65
240.536	630.07
240.766	630.89
240.997	630.14
241.227	630.92
241.457	630.03
241.687	629.82
241.918	630.29
242.148	629.31
242.378	628.87
242.608	627.31
242.839	625.52
243.069	624.27
243.299	623.11
243.529	623.43
243.759	622.27
243.989	621.6
244.22	621.76
244.45	620.11
244.68	619.85
244.91	618.65
245.14	618.34
245.37	618.07
245.6	619.03
245.83	620.32
246.06	618.78
246.29	618.76
246.52	618.31
246.75	617.91
246.98	616.54
247.21	615.91
247.44	615.8
247.67	616.14
247.9	616.2
248.13	615.74
248.359	613.85
248.589	613.29
248.819	611.62
249.049	611.07
249.279	609.47
249.509	610.11
249.738	610.02
249.968	609.18
250.198	607.72
250.428	606.38
250.657	605.83
250.887	606.09
251.117	606.38
251.347	606.65
251.576	605.36
251.806	604.91
252.036	603.87
252.265	603.87
252.495	603.32
252.725	604.92
252.954	604.27
253.184	603.18
253.413	601.56
253.643	600.05
253.873	599.03
254.102	599.47
254.332	599.43
254.561	599.87
254.791	599.98
255.02	600.51
255.25	599.07
255.479	599.11
255.708	597.85
255.938	598.34
256.167	597.49
256.397	596.82
256.626	594.87
256.856	594.07
257.085	591.91
257.314	589.74
257.544	588.51
257.773	588.11
258.002	587.62
258.232	587.29
258.461	586.05
258.69	585.51
258.919	585.03
259.149	584.83
259.378	583.78
259.607	582.98
259.836	583.05
260.065	582.02
260.295	580.03
260.524	579.45
260.753	578.38
260.982	577.27
261.211	577.07
261.44	575.71
261.669	574.89
261.899	574.54
262.128	573.6
262.357	571.4
262.586	570.43
262.815	570.38
263.044	568.65
263.273	571.32
263.502	570.34
263.731	569.51
263.96	568.62
264.189	568.12
264.418	566.25
264.646	565.56
264.875	565.05
265.104	563.65
265.333	562.22
265.562	562.54
265.791	558
266.02	556.85
266.249	555.25
266.477	554.03
266.706	551.85
266.935	550.71
267.164	551
267.393	550.43
267.621	550.51
267.85	549.71
268.079	548.51
268.307	548.85
268.536	549.74
268.765	549.76
268.993	549.72
269.222	550.45
269.451	552.78
269.679	552.87
269.908	554.47
270.137	554.56
270.365	554.76
270.594	554.27
270.822	553.56
271.051	552.94
271.279	552.2
271.508	553.45
271.736	554.18
271.965	553.67
272.193	552.82
272.422	551.98
272.65	551.82
272.879	551.23
273.107	552.25
273.336	551.2
273.564	550.25
273.792	549.52
274.021	547.47
274.249	546.12
274.477	544.09
274.706	543.29
274.934	540.22
275.162	537.8
275.391	538.18
275.619	536.56
275.847	536.72
276.075	536.22
276.304	535.6
276.532	535.83
276.76	534.22
276.988	531.82
277.216	530.76
277.445	531.67
277.673	531.76
277.901	530.07
278.129	527.87
278.357	527.45
278.585	527.25
278.813	526.11
279.041	524.47
279.269	524.31
279.497	524.91
279.725	523.89
279.954	521.92
280.182	522.11
280.41	520.89
280.637	521.02
280.865	520.56
281.093	519.6
281.321	519.36
281.549	519.85
281.777	519.85
282.005	519.31
282.233	518.74
282.461	518.83
282.689	518.02
282.916	518.14
283.144	519.27
283.372	518.6
283.6	517.54
283.828	517.16
284.055	515.76
284.283	515.07
284.511	515.69
284.739	516.67
284.966	516.89
285.194	516.05
285.422	514.96
285.649	513.71
285.877	512.34
286.105	512.09
286.332	512.65
286.56	512.8
286.788	511.74
287.015	510.63
287.243	509.22
287.47	507.6
287.698	507.27
287.925	507.87
288.153	507.03
288.381	507.71
288.608	507.11
288.836	505.62
289.063	505.02
289.29	504.92
289.518	504.71
289.745	503.38
289.973	503.22
290.2	503.92
290.428	503.4
290.655	501.52
290.882	500.51
291.11	500.67
291.337	499.43
291.564	498.54
291.792	497.85
292.019	497.6
292.246	498.09
292.473	498.27
292.701	496.38
292.928	494.32
293.155	493.74
293.382	492.25
293.61	491.16
293.837	490.16
294.064	490.63
294.291	490.78
294.518	489.07
294.745	488.42
294.972	487.18
295.2	486.94
295.427	487.8
295.654	488.25
295.881	487.8
296.108	487
296.335	486.72
296.562	485.89
296.789	483.98
297.016	484.82
297.243	484.69
297.47	484.49
297.697	483.18
297.924	482.38
298.151	480.87
298.378	481.03
298.604	480.54
298.831	480.69
299.058	479.8
299.285	479.8
299.512	478.62
299.739	477.8
299.966	476.52
300.192	476.22
300.419	475.27
300.646	475.4
300.873	474.11
301.099	474.65
301.326	474.09
301.553	472.54
301.78	473.11
302.006	472.02
302.233	471.05
302.46	470.98
302.686	469.8
302.913	470.07
303.14	470.36
303.366	471.4
303.593	470.74
303.819	469.29
304.046	469.4
304.272	468.42
304.499	468.89
304.725	468.91
304.952	468.62
305.179	468.63
305.405	467.98
305.631	466.96
305.858	466.94
306.084	466.43
306.311	467.65
306.537	467.82
306.764	467.91
306.99	467.83
307.216	467.11
307.443	466.98
307.669	468.45
307.895	467.8
308.122	467.92
308.348	466.69
308.574	465.69
308.801	464.94
309.027	464.92
309.253	464.8
309.479	463.12
309.706	463.34
309.932	462.42
310.158	461.02
310.384	460.56
310.61	460.56
310.837	460.62
311.063	461.18
311.289	461.36
311.515	461
311.741	460.49
311.967	461.74
312.193	462.47
312.419	463.02
312.645	463.76
312.871	463.11
313.097	463.18
313.323	462.56
313.549	463.36
313.775	463.4
314.001	462.87
314.227	462.36
314.453	462.02
314.679	460.98
314.905	461
315.131	461.12
315.357	461.74
315.583	461.76
315.809	462.32
316.034	461.71
316.26	461.8
316.486	462.71
316.712	463.78
316.938	463.76
317.163	464.34
317.389	465.34
317.615	465.51
317.841	466.8
318.066	467.32
318.292	467.51
318.518	468.2
318.743	469.12
318.969	468.82
319.195	469.32
319.42	469.65
319.646	470.56
319.872	471.14
320.097	471.6
320.323	472.31
320.548	473.78
320.774	475.36
320.999	476.65
321.225	477.03
321.45	478.94
321.676	480.92
321.901	482.6
322.127	484.02
322.352	485.14
322.578	485.94
322.803	487.25
323.029	487.56
323.254	489.29
323.479	489.76
323.705	492.71
323.93	494.02
324.155	496.14
324.381	497.62
324.606	498.23
324.831	501.18
325.057	502.92
325.282	505.69
325.507	508.38
325.732	509.49
325.958	511.92
326.183	513.78
326.408	516.69
326.633	520.03
326.858	524.03
327.084	529.05
327.309	529.67
327.534	532.87
327.759	534.89
327.984	538.12
328.209	541.67
328.434	546.07
328.659	549.71
328.884	552.52
329.109	553.32
329.334	555.32
329.559	556.96
329.784	561.54
330.009	565.34
330.234	569.49
330.459	572.58
330.684	577.45
330.909	581.05
331.134	583.62
331.359	587.82
331.584	592.98
331.809	596.56
332.034	600.87
332.259	605.51
332.483	610.31
332.708	613.58
332.933	618.18
333.158	621.12
333.383	624.67
333.607	629.23
333.832	634.03
334.057	637.29
334.282	642.74
334.506	647.98
334.731	652.56
334.956	657.45
335.18	664.02
335.405	669.22
335.63	676.23
335.854	682.83
336.079	688.67
336.303	695.38
336.528	703.38
336.753	709.29
336.977	715.92
337.202	721.92
337.426	728.87
337.651	735.34
337.875	742.49
338.1	747
338.324	752.38
338.549	760.07
338.773	766.91
338.997	773.03
339.222	780.92
339.446	786.56
339.671	794.8
339.895	801.78
340.119	810.8
340.344	818.02
340.568	826.22
340.792	834.25
341.017	841.67
341.241	849.2
341.465	856.83
341.689	864
341.914	872.58
342.138	878.82
342.362	886.49
342.586	892.91
342.811	901.92
343.035	912.18
343.259	919.72
343.483	930.42
343.707	938.38
343.931	947.78
344.155	957.92
344.38	967.02
344.604	977.67
344.828	987.31
345.052	996.12
345.276	1003.92
345.5	1011.65
345.724	1021.89
345.948	1030.05
346.172	1040.92
346.396	1049.65
346.62	1059.07
346.844	1068.74
347.068	1078.67
347.292	1089.87
347.515	1101.03
347.739	1114.12
347.963	1125.74
348.187	1139.23
348.411	1147.38
348.635	1156.65
348.859	1169.56
349.082	1180.52
349.306	1191.09
349.53	1202.45
349.754	1212.89
349.977	1223.89
350.201	1232.82
350.425	1243.31
350.649	1252.78
350.872	1266.78
351.096	1278.8
351.32	1287.65
351.543	1297.83
351.767	1309.6
351.99	1320.85
352.214	1330.89
352.438	1343.07
352.661	1354.16
352.885	1365.23
353.108	1376.03
353.332	1387
353.555	1399.6
353.779	1412.34
354.002	1424.63
354.226	1437.98
354.449	1448.51
354.673	1461.54
354.896	1473.18
355.12	1487.11
355.343	1499.47
355.566	1512.74
355.79	1523.56
356.013	1534.6
356.237	1545.94
356.46	1559.16
356.683	1571.71
356.907	1587.22
357.13	1600.63
357.353	1611.78
357.576	1623.32
357.8	1637.02
358.023	1649.51
358.246	1665.51
358.469	1678.71
358.693	1691.83
358.916	1703.69
359.139	1715.54
359.362	1725.16
359.585	1738.82
359.808	1752.16
360.031	1763.67
360.255	1775.94
360.478	1789.94
360.701	1802.96
360.924	1815.76
361.147	1831.49
361.37	1845.85
361.593	1859.67
361.816	1874.51
362.039	1885.09
362.262	1900.29
362.485	1914.69
362.708	1929.23
362.931	1941.89
363.154	1953
363.377	1965.94
363.599	1978.69
363.822	1991.12
364.045	2007.27
364.268	2021.82
364.491	2038
364.714	2053.07
364.936	2069.71
365.159	2084.4
365.382	2097.38
365.605	2113.67
365.828	2131.92
366.05	2147.22
366.273	2163.56
366.496	2178.96
366.718	2193.4
366.941	2208.54
367.164	2222.71
367.386	2237.31
367.609	2251.87
367.832	2270.38
368.054	2286.58
368.277	2299.42
368.5	2313.47
368.722	2330.11
368.945	2342.43
369.167	2358.52
369.39	2376.98
369.612	2394.56
369.835	2409.92
370.057	2427.38
370.28	2443.09
370.502	2459.02
370.725	2478.82
370.947	2497.56
371.169	2518.14
371.392	2537.6
371.614	2557.42
371.837	2572.72
372.059	2586.98
372.281	2606.72
372.504	2621.96
372.726	2638.54
372.948	2655.62
373.171	2672.67
373.393	2691.32
373.615	2705.58
373.837	2722.12
374.06	2737.4
374.282	2755.76
374.504	2776.6
374.726	2793.4
374.948	2815.43
375.17	2835.65
375.393	2855
375.615	2872.67
375.837	2888.8
376.059	2909
376.281	2930.8
376.503	2951.51
376.725	2972.6
376.947	2992.78
377.169	3013.52
377.391	3034.92
377.613	3058.27
377.835	3079
378.057	3100.47
378.279	3124.12
378.501	3146.45
378.723	3168.16
378.945	3191.16
379.167	3210.45
379.389	3231.78
379.611	3255.27
379.833	3276.67
380.054	3295.67
380.276	3322.63
380.498	3345
380.72	3367.87
380.942	3391.74
381.163	3416.45
381.385	3441.87
381.607	3467.8
381.829	3494.94
382.05	3518.03
382.272	3542.58
382.494	3571.83
382.716	3596.87
382.937	3624.03
383.159	3650.45
383.381	3675.32
383.602	3701.89
383.824	3725.27
384.045	3753.29
384.267	3777.38
384.488	3807.51
384.71	3832.96
384.932	3860.89
385.153	3884.96
385.375	3912.91
385.596	3938.78
385.818	3966.58
386.039	3988.29
386.261	4019.56
386.482	4049.51
386.703	4076.78
386.925	4101.58
387.146	4135.03
387.368	4160.23
387.589	4189.42
387.81	4220.05
388.032	4252.98
388.253	4284.14
388.474	4318.2
388.696	4345
388.917	4371.6
389.138	4403.52
389.359	4435.27
389.581	4465.18
389.802	4496.62
390.023	4528.74
390.244	4556.87
390.465	4585.76
390.687	4614.52
390.908	4642.34
391.129	4674.11
391.35	4702.87
391.571	4731.2
391.792	4764.18
392.013	4791.29
392.234	4821.38
392.455	4848.54
392.677	4881.22
392.898	4910.11
393.119	4943.92
393.34	4978.36
393.561	5010.23
393.782	5044.47
394.003	5079.8
394.223	5111.02
394.444	5143.47
394.665	5178
394.886	5215.31
395.107	5247.11
395.328	5284.63
395.549	5314.92
395.77	5349.22
395.99	5388.42
396.211	5424.62
396.432	5457.94
396.653	5488.43
396.874	5525.14
397.094	5559.05
397.315	5593.25
397.536	5631.82
397.757	5668.65
397.977	5704
398.198	5737.56
398.419	5766.71
398.639	5801.11
398.86	5838.07
399.081	5878.87
399.301	5912.27
399.522	5948.58
399.742	5979.49
399.963	6012.32
400.184	6041.34
400.404	6076.92
400.625	6112.12
400.845	6144.87
401.066	6175.94
401.286	6211.85
401.507	6243.56
401.727	6278.98
401.948	6312.45
402.168	6354.52
402.388	6385.38
402.609	6423.96
402.829	6462.47
403.05	6498.67
403.27	6537.58
403.49	6575.16
403.711	6608.43
403.931	6649.03
404.151	6688.4
404.372	6723.2
404.592	6756.65
404.812	6791.29
405.032	6825.23
405.253	6855.2
405.473	6891.09
405.693	6927.11
405.913	6963.82
406.133	7000.05
406.353	7036.36
406.574	7066.8
406.794	7102.63
407.014	7138.32
407.234	7178.67
407.454	7212.29
407.674	7247.58
407.894	7286.23
408.114	7323.29
408.334	7364.63
408.554	7401.2
408.774	7434.52
408.994	7475.34
409.214	7516.98
409.434	7550.92
409.654	7591.25
409.874	7632.49
410.094	7675.74
410.314	7711.49
410.534	7746.83
410.754	7781.18
410.974	7814.85
411.193	7850.45
411.413	7889.82
411.633	7928.69
411.853	7973.96
412.073	8009.38
412.292	8049.67
412.512	8087.42
412.732	8127.91
412.952	8172.71
413.171	8209
413.391	8251.12
413.611	8294.78
413.831	8333.82
414.05	8374.74
414.27	8415.67
414.489	8458.67
414.709	8504.05
414.929	8548.51
415.148	8592.52
415.368	8633.69
415.587	8682.78
415.807	8728.94
416.026	8772.23
416.246	8812.98
416.465	8853.34
416.685	8895.63
416.904	8940.56
417.124	8978.27
417.343	9021.42
417.563	9066.05
417.782	9113.98
418.002	9152.58
418.221	9194.91
418.44	9236.12
418.66	9283.83
418.879	9328
419.098	9367.22
419.318	9412.07
419.537	9459.23
419.756	9500.22
419.976	9538.89
420.195	9580.14
420.414	9626.42
420.633	9669.43
420.853	9715.18
421.072	9759.27
421.291	9802.51
421.51	9850.85
421.729	9891.72
421.948	9930
422.168	9977.31
422.387	10022.98
422.606	10063.31
422.825	10105.89
423.044	10151.58
423.263	10203.78
423.482	10247.51
423.701	10295.56
423.92	10340.09
424.139	10385.4
424.358	10437.89
424.577	10481.23
424.796	10529.52
425.015	10573.32
425.234	10621.12
425.453	10670.91
425.672	10707.76
425.891	10752.16
426.11	10794.58
426.328	10837.09
426.547	10884.07
426.766	10928.22
426.985	10977.52
427.204	11023.07
427.422	11070.58
427.641	11114.54
427.86	11155.38
428.079	11202.32
428.297	11253.25
428.516	11301.83
428.735	11351.02
428.954	11401.23
429.172	11445.31
429.391	11493.36
429.61	11539.38
429.828	11588.78
430.047	11637.36
430.265	11689.58
430.484	11737.16
430.703	11780.11
430.921	11825.12
431.14	11874.98
431.358	11919.62
431.577	11968.29
431.795	12012.22
432.014	12063.8
432.232	12114.4
432.451	12166.43
432.669	12216.89
432.887	12264.45
433.106	12309.91
433.324	12355.83
433.543	12400.78
433.761	12446.12
433.979	12497.69
434.198	12545.27
434.416	12592.03
434.634	12637.65
434.853	12684.05
435.071	12728.43
435.289	12776.25
435.507	12828.74
435.726	12873.05
435.944	12920.91
436.162	12969.56
436.38	13015.96
436.598	13062.05
436.817	13098.4
437.035	13145.92
437.253	13194.02
437.471	13240.11
437.689	13287.05
437.907	13337.03
438.125	13390.32
438.343	13439.74
438.561	13485.87
438.78	13531.45
438.998	13577.23
439.216	13635.71
439.434	13679.47
439.652	13721.47
439.869	13765.63
440.087	13812.87
440.305	13855.78
440.523	13898.45
440.741	13941.62
440.959	13996
441.177	14044.47
441.395	14095.32
441.613	14145.34
441.831	14200.4
442.048	14252.82
442.266	14305.25
442.484	14345.82
442.702	14396.92
442.919	14453.14
443.137	14504.87
443.355	14550.94
443.573	14602.76
443.79	14651.03
444.008	14697.67
444.226	14752.11
444.443	14794.22
444.661	14836.51
444.879	14899.76
445.096	14944.62
445.314	14993.12
445.532	15038.83
445.749	15088.29
445.967	15131.58
446.184	15179.29
446.402	15225.07
446.619	15266.07
446.837	15318.4
447.054	15370.34
447.272	15411.8
447.489	15458.65
447.707	15503.6
447.924	15547.54
448.141	15596.34
448.359	15641.23
448.576	15690.91
448.794	15737.07
449.011	15783.83
449.228	15836.09
449.446	15884.82
449.663	15934.27
449.88	15988.92
450.098	16037.8
450.315	16098.03
450.532	16145.52
450.749	16190.58
450.967	16236.16
451.184	16286.63
451.401	16336.54
451.618	16380.94
451.835	16434.69
452.052	16481.83
452.27	16521.2
452.487	16568.4
452.704	16608.76
452.921	16662.52
453.138	16721.36
453.355	16765.22
453.572	16812.03
453.789	16857.38
454.006	16902.42
454.223	16942.52
454.44	16990.6
454.657	17049.31
454.874	17100
455.091	17149.63
455.308	17181.72
455.525	17223.74
455.742	17279
455.959	17325.45
456.176	17369.62
456.393	17418.83
456.609	17469.23
456.826	17516.82
457.043	17555.91
457.26	17605.16
457.477	17651.4
457.693	17700.8
457.91	17748.94
458.127	17792.25
458.344	17838.49
458.56	17882.78
458.777	17929.27
458.994	17966.51
459.21	18003.74
459.427	18038.92
459.644	18064.52
459.86	18094.91
460.077	18130.03
460.294	18162.07
460.51	18195.58
460.727	18232.87
460.943	18276.23
461.16	18309.45
461.376	18351.98
461.593	18390.89
461.809	18436.56
462.026	18486.02
462.242	18532.32
462.459	18570.91
462.675	18615.49
462.892	18658.27
463.108	18695.47
463.324	18726
463.541	18769.49
463.757	18807
463.974	18855.22
464.19	18894.32
464.406	18927.87
464.623	18976.03
464.839	19027.23
465.055	19074.4
465.271	19120.45
465.488	19170.98
465.704	19218.85
465.92	19263.98
466.136	19316.52
466.353	19361.82
466.569	19413.78
466.785	19476.42
467.001	19524.82
467.217	19577.91
467.433	19634.63
467.649	19697.12
467.865	19757.62
468.082	19823.02
468.298	19883.63
468.514	19944.34
468.73	20016.54
468.946	20086.31
469.162	20148.83
469.378	20213.02
469.594	20276.71
469.81	20336.71
470.026	20395.42
470.242	20459.14
470.457	20526.6
470.673	20595.82
470.889	20662.22
471.105	20718.18
471.321	20786.63
471.537	20857.85
471.753	20932.14
471.968	21007.96
472.184	21086.03
472.4	21163.42
472.616	21231.31
472.832	21297.72
473.047	21372.52
473.263	21447.16
473.479	21525.14
473.694	21594.2
473.91	21665.09
474.126	21735.4
474.341	21808.07
474.557	21878.34
474.773	21940.56
474.988	22014.47
475.204	22101.4
475.42	22176.45
475.635	22249.62
475.851	22319.91
476.066	22384.89
476.282	22452.25
476.497	22523.76
476.713	22592.42
476.928	22656.54
477.144	22729.92
477.359	22800.09
477.575	22855.87
477.79	22915.89
478.005	22982.23
478.221	23045.27
478.436	23106.52
478.651	23165.25
478.867	23223.98
479.082	23282.05
479.297	23342.58
479.513	23403.69
479.728	23453.18
479.943	23504.87
480.159	23552.8
480.374	23590.51
480.589	23645.6
480.804	23700.47
481.019	23758.74
481.235	23804.38
481.45	23850.87
481.665	23900.83
481.88	23942
482.095	23999.47
482.31	24054.29
482.525	24112.07
482.741	24173.31
482.956	24213.92
483.171	24262.09
483.386	24303.47
483.601	24347.43
483.816	24392.36
484.031	24441.63
484.246	24491.96
484.461	24531.02
484.676	24572.82
484.891	24615.74
485.105	24656.05
485.32	24703.29
485.535	24751.22
485.75	24798.18
485.965	24854.71
486.18	24901.56
486.395	24939.69
486.609	24981.18
486.824	25020.07
487.039	25060.8
487.254	25097.82
487.469	25139.14
487.683	25175.16
487.898	25209.96
488.113	25243.74
488.327	25275.71
488.542	25316.74
488.757	25352.07
488.972	25387.03
489.186	25417.58
489.401	25452.31
489.615	25484.74
489.83	25524.85
490.045	25565.22
490.259	25601.02
490.474	25633.05
490.688	25664.96
490.903	25688.47
491.117	25717.71
491.332	25750.47
491.546	25792.09
491.761	25825.2
491.975	25866.49
492.19	25896.12
492.404	25926.32
492.618	25953.23
492.833	25983.38
493.047	26007.76
493.262	26037.09
493.476	26067.03
493.69	26092.52
493.905	26112.16
494.119	26143.23
494.333	26168.11
494.547	26191.27
494.762	26212.98
494.976	26240.62
495.19	26271.07
495.404	26300.14
495.619	26335.05
495.833	26368.12
496.047	26394.51
496.261	26418.74
496.475	26432.98
496.689	26441.31
496.903	26451.63
497.117	26459.96
497.332	26462.36
497.546	26458.03
497.76	26449
497.974	26429.45
498.188	26412.32
498.402	26401
498.616	26392.18
498.83	26380.05
499.044	26370.51
499.258	26365.45
499.472	26363.74
499.685	26363.34
499.899	26365.52
500.113	26386.42
500.327	26400.27
500.541	26414.49
500.755	26431.8
500.969	26451.45
501.183	26468.63
501.396	26491.32
501.61	26509.6
501.824	26532.42
502.038	26560.16
502.251	26589.85
502.465	26602.34
502.679	26626.83
502.892	26645.38
503.106	26658.07
503.32	26673.72
503.533	26697.67
503.747	26717.67
503.961	26744.32
504.174	26766.6
504.388	26789.49
504.602	26815.74
504.815	26848.98
505.029	26889.09
505.242	26936
505.456	26989.29
505.669	27044.4
505.883	27092.72
506.096	27144.23
506.31	27196.83
506.523	27248.63
506.736	27299.25
506.95	27350.78
507.163	27407.8
507.377	27466.63
507.59	27514.4
507.803	27570.8
508.017	27625.25
508.23	27674.76
508.443	27737.31
508.657	27800.69
508.87	27866.09
509.083	27942.83
509.296	28023.74
509.51	28098.03
509.723	28174.22
509.936	28264.65
510.149	28347.52
510.363	28437.52
510.576	28534.49
510.789	28618.58
511.002	28713.91
511.215	28818.82
511.428	28912.87
511.641	29007.96
511.854	29113.51
512.067	29209.42
512.28	29315.02
512.493	29418.14
512.707	29516.62
512.92	29620
513.132	29727.82
513.345	29837.2
513.558	29942.85
513.771	30049.89
513.984	30158.65
514.197	30268.67
514.41	30380.63
514.623	30482.18
514.836	30592.83
515.049	30702.92
515.262	30816.22
515.474	30923.31
515.687	31021.36
515.9	31125.6
516.113	31227.32
516.325	31324.52
516.538	31408.05
516.751	31498.58
516.964	31592.07
517.176	31680.83
517.389	31765.14
517.602	31840
517.814	31929.25
518.027	32011.02
518.24	32086.45
518.452	32160.18
518.665	32238.14
518.877	32319.12
519.09	32398.76
519.303	32474.56
519.515	32546.92
519.728	32613.52
519.94	32686.54
520.153	32754.03
520.365	32827.62
520.578	32895.51
520.79	32964.11
521.002	33031.45
521.215	33097.71
521.427	33157.03
521.64	33203.65
521.852	33255.82
522.064	33319.11
522.277	33366.18
522.489	33415.54
522.701	33452.05
522.914	33498.63
523.126	33543.56
523.338	33589.4
523.551	33626.29
523.763	33668.65
523.975	33718.12
524.187	33771.31
524.399	33812.82
524.612	33870.47
524.824	33920.8
525.036	33977.38
525.248	34026.65
525.46	34078.74
525.672	34117.14
525.884	34161.11
526.096	34198.36
526.308	34242.69
526.521	34276.69
526.733	34312.72
526.945	34344.74
527.157	34376.42
527.369	34404.43
527.581	34430.72
527.793	34461.31
528.004	34485.07
528.216	34516.11
528.428	34548.25
528.64	34571.63
528.852	34599.74
529.064	34629.47
529.276	34658.56
529.488	34681.62
529.699	34706.22
529.911	34737.72
530.123	34764.62
530.335	34798.29
530.547	34831.03
530.758	34863.58
530.97	34895.16
531.182	34928.49
531.393	34970.76
531.605	35010.05
531.817	35053.98
532.029	35094.11
532.24	35114.14
532.452	35138.47
532.663	35165.74
532.875	35191.45
533.087	35213.74
533.298	35242.56
533.51	35260.72
533.721	35269.4
533.933	35279.07
534.144	35288.45
534.356	35294.12
534.567	35318.98
534.779	35339.16
534.99	35364.27
535.202	35387.25
535.413	35402.85
535.624	35423.23
535.836	35447.49
536.047	35464.56
536.259	35479.38
536.47	35492.45
536.681	35516.78
536.893	35535.96
537.104	35554.89
537.315	35569.05
537.526	35579.45
537.738	35596.02
537.949	35614.07
538.16	35621.85
538.371	35640.92
538.582	35664.36
538.794	35685.91
539.005	35700.96
539.216	35722.67
539.427	35740.65
539.638	35760.47
539.849	35780.07
540.06	35806.05
540.272	35816.23
540.483	35838.2
540.694	35859.65
540.905	35873.74
541.116	35897.12
541.327	35921.18
541.538	35924.42
541.749	35935.56
541.96	35944.03
542.17	35957.63
542.381	35961.58
542.592	35969.51
542.803	35979.92
543.014	35988.47
543.225	35995.94
543.436	35996.51
543.647	35999.49
543.857	36015.94
544.068	36021.8
544.279	36026.32
544.49	36024.56
544.701	36029.6
544.911	36042.63
545.122	36054.51
545.333	36062.03
545.543	36071.96
545.754	36084
545.965	36097.25
546.175	36105.11
546.386	36122.78
546.597	36134.62
546.807	36152.34
547.018	36166.16
547.229	36168.42
547.439	36165.31
547.65	36177.54
547.86	36193.05
548.071	36189.42
548.281	36187.45
548.492	36198.62
548.702	36191.43
548.913	36204.27
549.123	36205.87
549.333	36214.36
549.544	36216.94
549.754	36233.23
549.965	36232.29
550.175	36238.14
550.385	36269.63
550.596	36292.65
550.806	36302.78
551.016	36324.29
551.227	36332.87
551.437	36343.05
551.647	36350.78
551.857	36375
552.068	36380.29
552.278	36400.22
552.488	36405.34
552.698	36400.4
552.908	36407.74
553.119	36421.62
553.329	36420.29
553.539	36425.12
553.749	36435.76
553.959	36443.42
554.169	36441.32
554.379	36443.42
554.589	36439.05
554.799	36442.98
555.009	36451.63
555.219	36454.2
555.429	36448.65
555.639	36455.82
555.849	36447.76
556.059	36450.83
556.269	36449.58
556.479	36447.02
556.689	36452
556.899	36454.92
557.109	36463.92
557.319	36469.92
557.528	36464.72
557.738	36462.42
557.948	36456.22
558.158	36457.14
558.368	36444.58
558.577	36439.74
558.787	36443.43
558.997	36433
559.207	36430.49
559.416	36412.87
559.626	36394.62
559.836	36379.82
560.045	36379.05
560.255	36385.58
560.465	36392.63
560.674	36401.02
560.884	36399.56
561.093	36389.62
561.303	36393.83
561.512	36391.14
561.722	36392.38
561.932	36379.62
562.141	36378.56
562.351	36373.23
562.56	36371.18
562.769	36366.23
562.979	36362.91
563.188	36366.71
563.398	36380.51
563.607	36387.58
563.817	36385.54
564.026	36391.32
564.235	36392.49
564.445	36400.54
564.654	36389.96
564.863	36387.63
565.073	36384.51
565.282	36385.89
565.491	36377.52
565.7	36362.69
565.91	36346.4
566.119	36334
566.328	36315.2
566.537	36314.03
566.746	36294.96
566.956	36293.23
567.165	36279.62
567.374	36268.38
567.583	36258.67
567.792	36256.32
568.001	36242.78
568.21	36227.07
568.419	36207.38
568.628	36188.29
568.837	36170.22
569.046	36149.85
569.255	36120.6
569.464	36089.51
569.673	36071.11
569.882	36028.94
570.091	35989.16
570.3	35969.25
570.509	35949.42
570.718	35937.51
570.927	35935.25
571.135	35927.38
571.344	35931.38
571.553	35938.62
571.762	35945.11
571.971	35941.31
572.18	35949.51
572.388	35950.67
572.597	35942.12
572.806	35924.87
573.014	35913.31
573.223	35889.36
573.432	35871.78
573.641	35839.12
573.849	35804.51
574.058	35772.51
574.266	35732.89
574.475	35713.71
574.684	35702.22
574.892	35696.14
575.101	35699.36
575.309	35683.83
575.518	35684.02
575.726	35669.27
575.935	35663.65
576.143	35652.03
576.352	35641.09
576.56	35632.91
576.769	35607.91
576.977	35591.12
577.186	35567.45
577.394	35545.85
577.602	35528.63
577.811	35504.16
578.019	35489.6
578.228	35476
578.436	35469.03
578.644	35447.25
578.852	35431.14
579.061	35424.8
579.269	35400.31
579.477	35374.58
579.685	35350.02
579.894	35338.02
580.102	35319.12
580.31	35299.63
580.518	35287.74
580.726	35273.47
580.935	35264.12
581.143	35246.94
581.351	35213.49
581.559	35194.05
581.767	35177.67
581.975	35154.76
582.183	35133.72
582.391	35108.65
582.599	35092.94
582.807	35070.92
583.015	35043.4
583.223	35019.83
583.431	35007.05
583.639	34995.76
583.847	34982.63
584.055	34958.85
584.263	34945.2
584.471	34917.36
584.678	34890.6
584.886	34859.09
585.094	34823
585.302	34796.78
585.51	34773.98
585.718	34743.82
585.925	34716.25
586.133	34698.63
586.341	34678.56
586.549	34664.03
586.756	34648
586.964	34643.23
587.172	34629.36
587.379	34613.72
587.587	34587.74
587.795	34559.58
588.002	34542.96
588.21	34524.25
588.417	34488.4
588.625	34459.11
588.833	34434.16
589.04	34411.56
589.248	34378.78
589.455	34365.49
589.663	34347.32
589.87	34327.05
590.078	34317.43
590.285	34296.71
590.492	34279.23
590.7	34266.58
590.907	34248.03
591.115	34222.42
591.322	34195.14
591.529	34172.69
591.737	34138.14
591.944	34115.36
592.151	34092.27
592.359	34058.78
592.566	34024.98
592.773	34003.51
592.981	33970.83
593.188	33951.31
593.395	33921.62
593.602	33900.4
593.809	33876.74
594.017	33845.76
594.224	33814.31
594.431	33785.69
594.638	33758.45
594.845	33737.02
595.052	33705.12
595.259	33677.8
595.466	33651.8
595.673	33622.85
595.88	33600.74
596.088	33578.91
596.295	33556.71
596.502	33534.38
596.709	33513.8
596.915	33506.63
597.122	33486.25
597.329	33469.65
597.536	33449.72
597.743	33432.72
597.95	33420.82
598.157	33385.14
598.364	33341.76
598.571	33315.62
598.777	33270.51
598.984	33226.74
599.191	33163.83
599.398	33104.52
599.605	33049.25
599.811	32996.74
600.018	32933.23
600.225	32874.45
600.431	32822.98
600.638	32792.42
600.845	32748.91
601.052	32719.71
601.258	32685.25
601.465	32649.78
601.671	32605.98
601.878	32544.14
602.085	32478.51
602.291	32380.12
602.498	32258.85
602.704	32130.07
602.911	31969.36
603.117	31787.54
603.324	31584.05
603.53	31367.63
603.737	31142.78
603.943	30907.22
604.15	30663.2
604.356	30398.22
604.562	30144.4
604.769	29886.6
604.975	29614.6
605.181	29348.43
605.388	29084.34
605.594	28822.74
605.8	28556.34
606.007	28287.23
606.213	28019.27
606.419	27746.78
606.625	27472.96
606.832	27209.71
607.038	26944.52
607.244	26683.83
607.45	26414.02
607.656	26140.2
607.863	25859.74
608.069	25582.91
608.275	25299.91
608.481	25024.03
608.687	24737.92
608.893	24462.02
609.099	24170.07
609.305	23878.56
609.511	23592.16
609.717	23299.18
609.923	23009.23
610.129	22717.02
610.335	22419.71
610.541	22116.89
610.747	21806.89
610.953	21502.52
611.159	21190.56
611.365	20885.72
611.571	20570.45
611.776	20255.67
611.982	19939.12
612.188	19614.25
612.394	19288.52
612.6	18960.32
612.806	18637.58
613.011	18315.2
613.217	17991.92
613.423	17670.69
613.628	17350.2
613.834	17037.6
614.04	16720.47
614.246	16410.58
614.451	16108.56
614.657	15820.22
614.862	15539.89
615.068	15261.78
615.274	14981.34
615.479	14712.47
615.685	14447.69
615.89	14191.76
616.096	13937.98
616.301	13680.03
616.507	13421.16
616.712	13166.31
616.918	12896.91
617.123	12628.18
617.329	12352.4
617.534	12079.82
617.74	11797.96
617.945	11515.98
618.15	11213.83
618.356	10741.18
618.561	9881.94
618.766	8841.09
618.972	7762.63
619.177	6717.27
619.382	5694.29
619.588	4703.32
619.793	4109.69
619.998	3419.41
620.203	2586.66
620.408	1575.43
620.614	586.73
