Data from MAYP1115451__0__15-21-18-806.txt Node

Date: Thu May 16 15:21:18 MDT 2024
User: Modes Lab
Spectrometer: MAYP111545
Trigger mode: 0
Integration Time (sec): 1.000000E-2
Scans to average: 5
Electric dark correction enabled: true
Nonlinearity correction enabled: false
Boxcar width: 5
XAxis mode: Wavelengths
Number of Pixels in Spectrum: 2068
>>>>>Begin Spectral Data<<<<<
165.214	155.13
165.449	151.87
165.683	159.27
165.918	166.74
166.152	171.8
166.387	175.88
166.621	105.88
166.856	142.01
167.09	158.46
167.325	179.21
167.559	194.72
167.794	209.43
168.028	216.86
168.263	217.59
168.497	216.37
168.732	217.12
168.966	216.85
169.2	217.32
169.435	217.35
169.669	217.63
169.903	218.52
170.138	219.37
170.372	219.65
170.606	220.34
170.841	220.05
171.075	220.23
171.309	219.45
171.544	219.48
171.778	219.05
172.012	219.34
172.246	219.19
172.48	218.61
172.715	219.19
172.949	218.99
173.183	218.39
173.417	218.35
173.651	219.05
173.885	219.19
174.119	219.97
174.354	220.59
174.588	220.85
174.822	220.81
175.056	221.59
175.29	221.03
175.524	219.46
175.758	220.26
175.992	221.94
176.226	221.34
176.46	222.35
176.694	222.54
176.928	222.86
177.162	222.97
177.396	223.43
177.63	224.48
177.864	224.9
178.097	226.92
178.331	227.21
178.565	227.01
178.799	227.32
179.033	227.12
179.267	227.03
179.5	226.79
179.734	226.94
179.968	228.14
180.202	227.88
180.436	228.74
180.669	229.15
180.903	229.7
181.137	230.05
181.371	231.45
181.604	231.94
181.838	232.97
182.072	234.1
182.305	235.35
182.539	234.77
182.772	234.92
183.006	235.41
183.24	235.92
183.473	238.12
183.707	238.43
183.94	239.06
184.174	240.3
184.408	241.03
184.641	240.97
184.875	241.48
185.108	242.83
185.342	244.03
185.575	244.15
185.808	245.14
186.042	244.74
186.275	245.57
186.509	246.35
186.742	247.94
186.976	248.15
187.209	249.72
187.442	251.86
187.676	252.77
187.909	254.72
188.142	255.94
188.376	257.32
188.609	258.23
188.842	260.35
189.076	262.83
189.309	265.12
189.542	268.86
189.775	271.77
190.009	275.63
190.242	281.19
190.475	286.12
190.708	292.66
190.941	298.92
191.174	307.57
191.408	316.72
191.641	327.68
191.874	338.79
192.107	353.57
192.34	370.26
192.573	387.03
192.806	406.41
193.039	427.45
193.272	450.45
193.505	475.83
193.738	502.05
193.971	531.97
194.204	562.83
194.437	596.81
194.67	631.48
194.903	667.55
195.136	705.17
195.369	743.88
195.602	784.21
195.835	825.21
196.068	867.74
196.301	913.94
196.533	958.99
196.766	1004.3
196.999	1048.7
197.232	1094.68
197.465	1144.05
197.698	1193.79
197.93	1240.9
198.163	1289.3
198.396	1339.77
198.629	1391.39
198.861	1442.48
199.094	1494.59
199.327	1545.46
199.559	1597.99
199.792	1651.54
200.025	1702.19
200.257	1756.01
200.49	1813.48
200.723	1871.72
200.955	1928.5
201.188	1984.57
201.42	2043.32
201.653	2100.86
201.886	2164.14
202.118	2226.95
202.351	2289.48
202.583	2356.9
202.816	2419.45
203.048	2484.26
203.281	2549.05
203.513	2620.79
203.745	2691.26
203.978	2763.65
204.21	2838.95
204.443	2916.45
204.675	2995.1
204.907	3077.06
205.14	3156.94
205.372	3243.59
205.605	3329.94
205.837	3420.92
206.069	3511.05
206.302	3604.59
206.534	3700.48
206.766	3796.28
206.998	3891.45
207.231	3993.85
207.463	4096.01
207.695	4206.21
207.927	4313.99
208.159	4425.99
208.392	4536.94
208.624	4651.94
208.856	4770.26
209.088	4886.63
209.32	5008.95
209.552	5140.14
209.784	5268.46
210.017	5398.06
210.249	5523.86
210.481	5652.43
210.713	5786.57
210.945	5923.48
211.177	6064.86
211.409	6205.7
211.641	6353.15
211.873	6496.95
212.105	6642.86
212.337	6791.1
212.569	6945.26
212.801	7105.06
213.033	7265.12
213.264	7427.19
213.496	7592.54
213.728	7755.52
213.96	7928.66
214.192	8098.92
214.424	8279.06
214.656	8451.81
214.887	8627.79
215.119	8807.99
215.351	8984.83
215.583	9168.52
215.815	9350.17
216.046	9537.52
216.278	9721.01
216.51	9905.01
216.741	10097.52
216.973	10287.85
217.205	10478.72
217.436	10675.5
217.668	10871.03
217.9	11066.97
218.131	11267.63
218.363	11474.35
218.595	11675.39
218.826	11887.39
219.058	12098.81
219.289	12304.63
219.521	12515.08
219.752	12731.99
219.984	12949.97
220.215	13166.54
220.447	13389.17
220.678	13611.72
220.91	13838.66
221.141	14066.86
221.373	14300.75
221.604	14534.41
221.836	14768.43
222.067	15004.01
222.298	15244.46
222.53	15482.65
222.761	15732.5
222.993	15986.57
223.224	16243.85
223.455	16493.21
223.686	16745.34
223.918	17002.08
224.149	17259.63
224.38	17524.21
224.612	17784.45
224.843	18041.77
225.074	18304.63
225.305	18560.74
225.536	18821.68
225.768	19081.19
225.999	19349.46
226.23	19615.28
226.461	19872.7
226.692	20137.75
226.923	20405.92
227.155	20678.28
227.386	20959.65
227.617	21232.39
227.848	21505.77
228.079	21781.03
228.31	22063.3
228.541	22337.83
228.772	22624.85
229.003	22908.65
229.234	23190.75
229.465	23470.41
229.696	23744.55
229.927	24017.97
230.158	24295.3
230.389	24578.52
230.62	24862.48
230.85	25145.55
231.081	25432.7
231.312	25714.86
231.543	25991.12
231.774	26274.01
232.005	26549.61
232.236	26840.81
232.466	27129.63
232.697	27414.15
232.928	27693.9
233.159	27967.61
233.389	28236.23
233.62	28494.32
233.851	28742.61
234.082	29000.34
234.312	29238.34
234.543	29468.88
234.774	29692.66
235.004	29910.77
235.235	30123.43
235.466	30328.01
235.696	30527.14
235.927	30715.5
236.157	30911.12
236.388	31116.52
236.618	31309.75
236.849	31505.14
237.08	31705.48
237.31	31895.23
237.541	32073.05
237.771	32264.03
238.002	32450.03
238.232	32626.94
238.463	32810.79
238.693	32980.19
238.923	33137.17
239.154	33292.1
239.384	33436.95
239.615	33587.48
239.845	33731.65
240.075	33888.81
240.306	34017.39
240.536	34157.48
240.766	34287.08
240.997	34407.48
241.227	34530.06
241.457	34660.99
241.687	34783.85
241.918	34917.06
242.148	35033.5
242.378	35146.35
242.608	35248.79
242.839	35363.25
243.069	35468.14
243.299	35579.54
243.529	35693.25
243.759	35795.5
243.989	35893.95
244.22	35997.81
244.45	36099.08
244.68	36197.77
244.91	36318.08
245.14	36421.85
245.37	36530.95
245.6	36635.03
245.83	36740.26
246.06	36836.52
246.29	36947.97
246.52	37043.79
246.75	37143.63
246.98	37239.1
247.21	37348.95
247.44	37441.5
247.67	37545.14
247.9	37639.5
248.13	37736.26
248.359	37824.95
248.589	37915.15
248.819	38004.57
249.049	38109.35
249.279	38204.52
249.509	38302.52
249.738	38385.55
249.968	38459.66
250.198	38526.37
250.428	38598.39
250.657	38677.19
250.887	38768.5
251.117	38860.86
251.347	38947.86
251.576	39026.23
251.806	39094.26
252.036	39156.81
252.265	39225.9
252.495	39307.37
252.725	39381.95
252.954	39453.95
253.184	39518.55
253.413	39578.35
253.643	39631.25
253.873	39677.3
254.102	39722.83
254.332	39778.06
254.561	39845.39
254.791	39902.88
255.02	39951.83
255.25	40024.97
255.479	40085.1
255.708	40133.26
255.938	40180.59
256.167	40228.45
256.397	40288.06
256.626	40336.52
256.856	40377.15
257.085	40405.77
257.314	40432.05
257.544	40457.15
257.773	40467.17
258.002	40489.77
258.232	40531.63
258.461	40570.79
258.69	40611.92
258.919	40643.79
259.149	40675.54
259.378	40718.48
259.607	40763.28
259.836	40812.01
260.065	40867.06
260.295	40926.46
260.524	40981.34
260.753	41025.05
260.982	41068.7
261.211	41106.17
261.44	41144.94
261.669	41196.9
261.899	41251.01
262.128	41295.81
262.357	41341.52
262.586	41373.12
262.815	41397.95
263.044	41423.94
263.273	41440.21
263.502	41453.25
263.731	41485.37
263.96	41512.79
264.189	41535.03
264.418	41556.54
264.646	41575.57
264.875	41604.21
265.104	41644.21
265.333	41681.26
265.562	41716.23
265.791	41760.48
266.02	41807.68
266.249	41840.12
266.477	41882.57
266.706	41923.52
266.935	41964.61
267.164	42024.48
267.393	42082.21
267.621	42130.7
267.85	42193.48
268.079	42245.9
268.307	42304.59
268.536	42364.55
268.765	42430.7
268.993	42495.5
269.222	42556.41
269.451	42626.88
269.679	42690.41
269.908	42746.79
270.137	42812.5
270.365	42884.75
270.594	42967.32
270.822	43037.97
271.051	43123.14
271.279	43200.95
271.508	43289.95
271.736	43397.86
271.965	43488.14
272.193	43576.35
272.422	43678.43
272.65	43787.32
272.879	43879.05
273.107	43981.59
273.336	44090.92
273.564	44181.59
273.792	44281.26
274.021	44368.41
274.249	44447.01
274.477	44544.79
274.706	44643.7
274.934	44758.1
275.162	44860.03
275.391	44971.45
275.619	45086.72
275.847	45196.15
276.075	45315.68
276.304	45447.14
276.532	45576.77
276.76	45723.81
276.988	45852.65
277.216	45985.5
277.445	46101.23
277.673	46235.03
277.901	46364.48
278.129	46482.12
278.357	46602.94
278.585	46740.41
278.813	46866.79
279.041	47014.34
279.269	47137.14
279.497	47282.19
279.725	47423.19
279.954	47562.17
280.182	47700.63
280.41	47835.75
280.637	47984.19
280.865	48137.03
281.093	48278.01
281.321	48411.39
281.549	48525.25
281.777	48647.85
282.005	48765.74
282.233	48883.37
282.461	49013.03
282.689	49137.57
282.916	49272.99
283.144	49405.08
283.372	49539.01
283.6	49671.79
283.828	49805.55
284.055	49947.95
284.283	50081.32
284.511	50226.74
284.739	50357.41
284.966	50483.99
285.194	50603.86
285.422	50723.26
285.649	50836.46
285.877	50954.35
286.105	51076.74
286.332	51202.03
286.56	51315.05
286.788	51446.94
287.015	51555.61
287.243	51694.57
287.47	51816.68
287.698	51950.17
287.925	52072.1
288.153	52206.95
288.381	52342.35
288.608	52465.32
288.836	52584.06
289.063	52717.01
289.29	52834.68
289.518	52952.57
289.745	53065.25
289.973	53200.79
290.2	53321.25
290.428	53438.85
290.655	53565.5
290.882	53683.99
291.11	53799.32
291.337	53923.59
291.564	54042.01
291.792	54175.95
292.019	54291.01
292.246	54408.72
292.473	54499.32
292.701	54599.63
292.928	54708.5
293.155	54796.72
293.382	54898.03
293.61	54994.9
293.837	55096.43
294.064	55192.63
294.291	55269.45
294.518	55354.17
294.745	55428.77
294.972	55516.85
295.2	55602.06
295.427	55686.52
295.654	55767.43
295.881	55838.55
296.108	55908.08
296.335	55968.3
296.562	56028.43
296.789	56101.81
297.016	56173.66
297.243	56240.1
297.47	56295.3
297.697	56344.92
297.924	56389.81
298.151	56435.63
298.378	56471.9
298.604	56503.88
298.831	56528.19
299.058	56548.66
299.285	56563.66
299.512	56595.68
299.739	56618.39
299.966	56637.06
300.192	56645.88
300.419	56658.14
300.646	56648.28
300.873	56647.15
301.099	56650.21
301.326	56651.79
301.553	56652.03
301.78	56650.08
302.006	56627.45
302.233	56613.43
302.46	56596.26
302.686	56593.26
302.913	56567.37
303.14	56564.3
303.366	56549.48
303.593	56521.14
303.819	56505.26
304.046	56481.03
304.272	56453.34
304.499	56427.12
304.725	56396.57
304.952	56367.66
305.179	56326.37
305.405	56300.34
305.631	56266.72
305.858	56220.05
306.084	56191.43
306.311	56153.15
306.537	56115.35
306.764	56063.7
306.99	56013.3
307.216	55974.92
307.443	55925.57
307.669	55876.68
307.895	55822.65
308.122	55762.28
308.348	55713.68
308.574	55658.21
308.801	55601.03
309.027	55544.32
309.253	55497.01
309.479	55444.74
309.706	55371.21
309.932	55314.32
310.158	55255.68
310.384	55207.12
310.61	55146.94
310.837	55087.66
311.063	55021.55
311.289	54952.23
311.515	54882.86
311.741	54811.41
311.967	54735.7
312.193	54671.75
312.419	54606.43
312.645	54527.3
312.871	54439.92
313.097	54366.03
313.323	54289.5
313.549	54218.81
313.775	54135.61
314.001	54062.79
314.227	53978.25
314.453	53893.25
314.679	53798.14
314.905	53704.83
315.131	53620.57
315.357	53531.08
315.583	53437.74
315.809	53337.88
316.034	53236.85
316.26	53159.19
316.486	53074.3
316.712	52980.7
316.938	52890.61
317.163	52800.3
317.389	52701.63
317.615	52603.23
317.841	52507.26
318.066	52418.7
318.292	52334.9
318.518	52246.19
318.743	52154.85
318.969	52056.03
319.195	51970.39
319.42	51888.12
319.646	51804.88
319.872	51726.45
320.097	51648.05
320.323	51569.85
320.548	51488.26
320.774	51406.14
320.999	51318.79
321.225	51232.35
321.45	51148.92
321.676	51060.79
321.901	50980.99
322.127	50907.12
322.352	50829.68
322.578	50762.39
322.803	50692.25
323.029	50614.94
323.254	50537.05
323.479	50475.99
323.705	50401.65
323.93	50331.08
324.155	50265.81
324.381	50197.01
324.606	50135.77
324.831	50059.39
325.057	49967.14
325.282	49883.99
325.507	49811.95
325.732	49738.08
325.958	49656.54
326.183	49570.59
326.408	49488.1
326.633	49395.32
326.858	49309.05
327.084	49201.57
327.309	49128.81
327.534	49051.5
327.759	48983.32
327.984	48893.25
328.209	48815.05
328.434	48737.14
328.659	48670.48
328.884	48599.59
329.109	48556.34
329.334	48488.94
329.559	48432.35
329.784	48362.45
330.009	48295.97
330.234	48206.03
330.459	48135.19
330.684	48052.83
330.909	47972.95
331.134	47885.21
331.359	47790.01
331.584	47681.66
331.809	47601.94
332.034	47519.05
332.259	47424.08
332.483	47338.88
332.708	47260.39
332.933	47176.08
333.158	47090.26
333.383	47018.17
333.607	46941.55
333.832	46884.54
334.057	46818.72
334.282	46751.3
334.506	46679.57
334.731	46619.95
334.956	46548.3
335.18	46483.57
335.405	46418.1
335.63	46353.03
335.854	46267.3
336.079	46188.75
336.303	46094.57
336.528	46007.12
336.753	45914.35
336.977	45816.48
337.202	45717.37
337.426	45634.66
337.651	45536.5
337.875	45450.66
338.1	45359.46
338.324	45280.86
338.549	45198.41
338.773	45120.03
338.997	45043.7
339.222	44958.81
339.446	44892.92
339.671	44825.99
339.895	44763.01
340.119	44704.03
340.344	44641.17
340.568	44579.61
340.792	44504.5
341.017	44428.92
341.241	44347.35
341.465	44269.75
341.689	44197.08
341.914	44106.86
342.138	44021.54
342.362	43923.94
342.586	43830.1
342.811	43719.48
343.035	43613.99
343.259	43516.32
343.483	43425.45
343.707	43334.05
343.931	43238.57
344.155	43145.75
344.38	43059.72
344.604	42971.3
344.828	42889.95
345.052	42801.03
345.276	42725.83
345.5	42652.41
345.724	42580.55
345.948	42509.15
346.172	42442.12
346.396	42365.88
346.62	42295.1
346.844	42212.99
347.068	42111.35
347.292	42012.97
347.515	41913.08
347.739	41820.45
347.963	41721.03
348.187	41610.74
348.411	41493.74
348.635	41379.39
348.859	41277.9
349.082	41159.03
349.306	41046.37
349.53	40946.08
349.754	40833.45
349.977	40734.19
350.201	40632.86
350.425	40522.3
350.649	40420.5
350.872	40319.83
351.096	40219.45
351.32	40108.14
351.543	39996.1
351.767	39883.94
351.99	39777.41
352.214	39680.48
352.438	39568.88
352.661	39444.14
352.885	39341.06
353.108	39234.46
353.332	39127.46
353.555	39016.77
353.779	38907.68
354.002	38803.94
354.226	38694.55
354.449	38590.19
354.673	38475.79
354.896	38381.59
355.12	38282.03
355.343	38184.92
355.566	38078.06
355.79	37984.55
356.013	37884.59
356.237	37786.97
356.46	37699.26
356.683	37612.81
356.907	37508.15
357.13	37409.81
357.353	37299.95
357.576	37203.95
357.8	37096.43
358.023	36995.41
358.246	36883.06
358.469	36773.59
358.693	36661.9
358.916	36540.03
359.139	36427.57
359.362	36322.25
359.585	36218.57
359.808	36112.75
360.031	36016.74
360.255	35915.43
360.478	35822.65
360.701	35722.81
360.924	35631.99
361.147	35554.1
361.37	35473.61
361.593	35399.43
361.816	35321.12
362.039	35225.59
362.262	35137.55
362.485	35033.95
362.708	34937.65
362.931	34835.15
363.154	34746.52
363.377	34654.81
363.599	34555.39
363.822	34459.14
364.045	34368.14
364.268	34289.37
364.491	34219.68
364.714	34161.81
364.936	34114.72
365.159	34081.15
365.382	34058.37
365.605	34050.57
365.828	34031.48
366.05	34007.86
366.273	34008.43
366.496	34004.74
366.718	33983.3
366.941	33959.88
367.164	33912.79
367.386	33861.37
367.609	33794.19
367.832	33722.7
368.054	33625.3
368.277	33525.68
368.5	33425.45
368.722	33289.68
368.945	33137.52
369.167	32987.03
369.39	32846.08
369.612	32709.77
369.835	32579.48
370.057	32459.19
370.28	32341.26
370.502	32228.83
370.725	32123.5
370.947	32030.46
371.169	31953.77
371.392	31887.68
371.614	31813.65
371.837	31747.05
372.059	31685.61
372.281	31624.57
372.504	31558.37
372.726	31488.12
372.948	31425.12
373.171	31379.43
373.393	31341.26
373.615	31308.3
373.837	31298.08
374.06	31327.74
374.282	31351.3
374.504	31380.05
374.726	31390.88
374.948	31390.57
375.17	31387.68
375.393	31389.5
375.615	31378.26
375.837	31374.39
376.059	31376.37
376.281	31376.97
376.503	31377.61
376.725	31384.23
376.947	31400.59
377.169	31436.34
377.391	31492.88
377.613	31576.48
377.835	31672.3
378.057	31794.94
378.279	31909.77
378.501	31991.74
378.723	32020.5
378.945	31992.52
379.167	31961.14
379.389	31927.03
379.611	31896.01
379.833	31848.01
380.054	31760.81
380.276	31633.86
380.498	31482.66
380.72	31330.9
380.942	31221.12
381.163	31189.66
381.385	31210.34
381.607	31243.08
381.829	31244.66
382.05	31216.26
382.272	31171.41
382.494	31136.72
382.716	31126.06
382.937	31120.41
383.159	31121.39
383.381	31105.92
383.602	31052.74
383.824	30982.23
384.045	30884.19
384.267	30807.61
384.488	30744.57
384.71	30710.43
384.932	30694.75
385.153	30676.25
385.375	30674.81
385.596	30667.46
385.818	30677.86
386.039	30719.86
386.261	30797.85
386.482	30902.17
386.703	31016.9
386.925	31147.97
387.146	31292.57
387.368	31435.05
387.589	31571.7
387.81	31657.12
388.032	31687.81
388.253	31642.41
388.474	31536.26
388.696	31378.23
388.917	31220.63
389.138	31062.92
389.359	30917.9
389.581	30761.37
389.802	30598.37
390.023	30454.88
390.244	30357.15
390.465	30325.28
390.687	30385.77
390.908	30501.92
391.129	30693.35
391.35	30930.95
391.571	31211.37
391.792	31502.3
392.013	31788.03
392.234	32021.92
392.455	32179.41
392.677	32269.77
392.898	32321.48
393.119	32343.06
393.34	32347.94
393.561	32307.5
393.782	32210.72
394.003	32042.41
394.223	31808.65
394.444	31553.06
394.665	31340.95
394.886	31192.65
395.107	31113.65
395.328	31066.85
395.549	31046.32
395.77	31025.86
395.99	31013.3
396.211	31045.37
396.432	31133.3
396.653	31299.86
396.874	31533.92
397.094	31808.32
397.315	32119.01
397.536	32426.45
397.757	32690.92
397.977	32858.77
398.198	32956.17
398.419	32997.34
398.639	32972.32
398.86	32870.66
399.081	32685.48
399.301	32435.95
399.522	32153.5
399.742	31843.08
399.963	31539.59
400.184	31249.54
400.404	30997.66
400.625	30776.83
400.845	30587.17
401.066	30414.88
401.286	30285.08
401.507	30202.25
401.727	30138.95
401.948	30069.15
402.168	29988.94
402.388	29900.05
402.609	29835.77
402.829	29810.54
403.05	29823.83
403.27	29865.01
403.49	29926.48
403.711	30020.79
403.931	30138.79
404.151	30286.28
404.372	30451.45
404.592	30613.88
404.812	30731.92
405.032	30779.1
405.253	30751.68
405.473	30657.55
405.693	30508.7
405.913	30316.35
406.133	30075.28
406.353	29785.41
406.574	29463.85
406.794	29132.79
407.014	28839.79
407.234	28617.99
407.454	28487.7
407.674	28422.3
407.894	28407.99
408.114	28416.52
408.334	28444.08
408.554	28484.35
408.774	28566.46
408.994	28639.65
409.214	28680.54
409.434	28660.59
409.654	28565.57
409.874	28440.08
410.094	28314.5
410.314	28207.66
410.534	28111.77
410.754	28031.66
410.974	27989.05
411.193	27953.06
411.413	27980.14
411.633	28075.83
411.853	28200.95
412.073	28364.03
412.292	28517.59
412.512	28641.97
412.732	28723.92
412.952	28767.9
413.171	28762.34
413.391	28714.46
413.611	28626.72
413.831	28494.35
414.05	28325.48
414.27	28147.85
414.489	27965.01
414.709	27774.92
414.929	27613.7
415.148	27488.37
415.368	27404.34
415.587	27349.57
415.807	27297.28
416.026	27226.43
416.246	27148.97
416.465	27079.92
416.685	27016.05
416.904	26951.97
417.124	26888.85
417.343	26822.68
417.563	26757.88
417.782	26699.9
418.002	26660.26
418.221	26642.1
418.44	26662.37
418.66	26689.99
418.879	26718.59
419.098	26763.9
419.318	26865.26
419.537	27028.55
419.756	27240.97
419.976	27501.72
420.195	27807.7
420.414	28168.01
420.633	28559.17
420.853	28946.79
421.072	29304.23
421.291	29585.81
421.51	29808.95
421.729	29968.9
421.948	30082.08
422.168	30168.97
422.387	30204.21
422.606	30150.79
422.825	29969.17
423.044	29688.86
423.263	29345.54
423.482	29018.06
423.701	28768.65
423.92	28572.23
424.139	28384.81
424.358	28168.85
424.577	27878.59
424.796	27526.77
425.015	27170.26
425.234	26863.61
425.453	26616.3
425.672	26452.72
425.891	26369.66
426.11	26347.79
426.328	26416.14
426.547	26498.75
426.766	26556.41
426.985	26588.41
427.204	26596.46
427.422	26631.01
427.641	26715.74
427.86	26816.81
428.079	26943.81
428.297	27071.14
428.516	27236.25
428.735	27381.55
428.954	27563.3
429.172	27799.15
429.391	28079.41
429.61	28408.43
429.828	28690.52
430.047	28866.88
430.265	28940.65
430.484	28855.85
430.703	28613.52
430.921	28207.9
431.14	27683.26
431.358	27114.83
431.577	26558.5
431.795	26042.32
432.014	25595.19
432.232	25315.75
432.451	25250.46
432.669	25442.1
432.887	25776.59
433.106	26112.77
433.324	26332.45
433.543	26433.21
433.761	26474.54
433.979	26542.19
434.198	26621.74
434.416	26663.37
434.634	26584.48
434.853	26347.55
435.071	25953.88
435.289	25573.52
435.507	25303.15
435.726	25200.75
435.944	25221.41
436.162	25238.54
436.38	25183.21
436.598	25113.66
436.817	25065.43
437.035	25048.45
437.253	25075.21
437.471	25102.88
437.689	25080.83
437.907	25036.45
438.125	24962.77
438.343	24905.28
438.561	24878.83
438.78	24869.15
438.998	24833.92
439.216	24771.35
439.434	24714.19
439.652	24704.12
439.869	24798.9
440.087	25035.92
440.305	25376.54
440.523	25777.65
440.741	26158.74
440.959	26491.63
441.177	26754.46
441.395	26987.43
441.613	27194.25
441.831	27373.25
442.048	27510.97
442.266	27564.39
442.484	27510.57
442.702	27364.72
442.919	27153.85
443.137	26972.68
443.355	26835.08
443.573	26778.55
443.79	26776.12
444.008	26797.05
444.226	26806.12
444.443	26756.88
444.661	26655.81
444.879	26519.12
445.096	26386.05
445.314	26305.52
445.532	26240.9
445.749	26186.85
445.967	26096.26
446.184	25967.37
446.402	25835.08
446.619	25694.83
446.837	25573.1
447.054	25447.59
447.272	25310.65
447.489	25157.65
447.707	25002.41
447.924	24855.85
448.141	24744.01
448.359	24665.81
448.576	24616.32
448.794	24570.66
449.011	24530.19
449.228	24483.75
449.446	24435.03
449.663	24373.15
449.88	24280.45
450.098	24155.43
450.315	23993.12
450.532	23815.55
450.749	23664.15
450.967	23518.63
451.184	23376.5
451.401	23245.85
451.618	23103.92
451.835	22951.9
452.052	22804.9
452.27	22659.12
452.487	22517.77
452.704	22400.72
452.921	22280.45
453.138	22123.85
453.355	21971.86
453.572	21830.15
453.789	21723.43
454.006	21686.35
454.223	21708.68
454.44	21753.12
454.657	21792.68
454.874	21795.23
455.091	21773.55
455.308	21743.43
455.525	21735.77
455.742	21749.99
455.959	21781.63
456.176	21814.48
456.393	21835.48
456.609	21853.28
456.826	21902.01
457.043	22002.39
457.26	22160.85
457.477	22343.95
457.693	22529.7
457.91	22701.43
458.127	22830.43
458.344	22932.63
458.56	22996.1
458.777	22997.3
458.994	22936.57
459.21	22798.94
459.427	22591.35
459.644	22365.66
459.86	22139.48
460.077	21937.94
460.294	21742.12
460.51	21514.66
460.727	21232.37
460.943	20903.99
461.16	20573.79
461.376	20272.55
461.593	20038.63
461.809	19900.37
462.026	19806.05
462.242	19743.43
462.459	19722.83
462.675	19752.52
462.892	19851.59
463.108	20035.45
463.324	20297.74
463.541	20599.75
463.757	20923.08
463.974	21243.32
464.19	21498.26
464.406	21733.39
464.623	21928.41
464.839	22040.74
465.055	22071.97
465.271	22015.92
465.488	21849.95
465.704	21593.9
465.92	21289.03
466.136	20952.83
466.353	20591.63
466.569	20255.66
466.785	19907.43
467.001	19577.45
467.217	19272.43
467.433	18977.55
467.649	18717.05
467.865	18485.75
468.082	18282.34
468.298	18088.7
468.514	17881.5
468.73	17658.63
468.946	17413.28
469.162	17159.03
469.378	16883.41
469.594	16607.85
469.81	16366.14
470.026	16160.15
470.242	16005.95
470.457	15895.66
470.673	15824.23
470.889	15790.03
471.105	15788.39
471.321	15823.77
471.537	15899.08
471.753	16022.28
471.968	16183.1
472.184	16353.65
472.4	16521.55
472.616	16677.21
472.832	16802.92
473.047	16883.88
473.263	16955.17
473.479	17012.57
473.694	17073.83
473.91	17154.25
474.126	17224.7
474.341	17283.97
474.557	17307.26
474.773	17295.12
474.988	17272.75
475.204	17266.99
475.42	17288.88
475.635	17298.81
475.851	17297.5
476.066	17249.23
476.282	17141.66
476.497	17029.41
476.713	16932.85
476.928	16893.5
477.144	16902.61
477.359	16922.03
477.575	16917.55
477.79	16897.52
478.005	16874.01
478.221	16863.43
478.436	16894.63
478.651	16973.14
478.867	17053.39
479.082	17126.97
479.297	17175.45
479.513	17181.68
479.728	17187.28
479.943	17208.12
480.159	17255.32
480.374	17336.86
480.589	17438.1
480.804	17523.9
481.019	17551.79
481.235	17532.46
481.45	17442.86
481.665	17318.23
481.88	17228.23
482.095	17163.54
482.31	17126.54
482.525	17110.72
482.741	17097.99
482.956	17089.55
483.171	17125.3
483.386	17229.43
483.601	17383.95
483.816	17601.01
484.031	18002.26
484.246	19210.26
484.461	21519.66
484.676	24717.35
484.891	28593.01
485.105	32255.97
485.32	35003.61
485.535	36768.46
485.75	37553.52
485.965	37677.08
486.18	37618.77
486.395	37365.46
486.609	36249.61
486.824	33954.55
487.039	30703.12
487.254	26687.37
487.469	22838.68
487.683	19883.12
487.898	17866.92
488.113	16789.7
488.327	16361.14
488.542	16092.65
488.757	15860.77
488.972	15679.1
489.186	15540.43
489.401	15444.39
489.615	15407.74
489.83	15382.92
490.045	15340.72
490.259	15281.86
490.474	15191.41
490.688	15062.35
490.903	14924.81
491.117	14780.43
491.332	14643.32
491.546	14536.72
491.761	14447.61
491.975	14369.83
492.19	14300.15
492.404	14247.05
492.618	14191.9
492.833	14153.39
493.047	14127.85
493.262	14104.57
493.476	14071.01
493.69	14000.19
493.905	13903.63
494.119	13776.65
494.333	13622.46
494.547	13494.25
494.762	13400.88
494.976	13381.43
495.19	13422.23
495.404	13487.23
495.619	13544.59
495.833	13564.21
496.047	13544.61
496.261	13490.19
496.475	13431.5
496.689	13384.74
496.903	13330.92
497.117	13259.3
497.332	13163.81
497.546	13036.41
497.76	12912.65
497.974	12814.75
498.188	12760.95
498.402	12772.15
498.616	12832.74
498.83	12899.14
499.044	12941.7
499.258	12936.9
499.472	12895.61
499.685	12827.55
499.899	12768.1
500.113	12715.12
500.327	12661.88
500.541	12621.05
500.755	12580.12
500.969	12540.5
501.183	12516.46
501.396	12521.39
501.61	12548.52
501.824	12596.94
502.038	12642.46
502.251	12649.65
502.465	12624.14
502.679	12559.17
502.892	12460.5
503.106	12346.01
503.32	12213.94
503.533	12081.97
503.747	11953.55
503.961	11848.3
504.174	11744.37
504.388	11635.3
504.602	11526.06
504.815	11433.77
505.029	11375.17
505.242	11346.34
505.456	11334.77
505.669	11317.92
505.883	11273.46
506.096	11206.1
506.31	11115.66
506.523	11020.97
506.736	10938.59
506.95	10885.01
507.163	10834.52
507.377	10780.19
507.59	10713.01
507.803	10630.81
508.017	10553.66
508.23	10510.5
508.443	10483.83
508.657	10464.28
508.87	10456.72
509.083	10435.81
509.296	10393.95
509.51	10350.7
509.723	10301.95
509.936	10267.19
510.149	10252.46
510.363	10263.9
510.576	10267.74
510.789	10259.45
511.002	10245.68
511.215	10208.39
511.428	10167.3
511.641	10127.61
511.854	10087.57
512.067	10042.81
512.28	9997.06
512.493	9940.3
512.707	9873.81
512.92	9816.72
513.132	9778.43
513.345	9738.25
513.558	9702.48
513.771	9661.5
513.984	9609.86
514.197	9542.01
514.41	9487.85
514.623	9439.68
514.836	9407.35
515.049	9386.81
515.262	9365.37
515.474	9344.83
515.687	9331.66
515.9	9316.34
516.113	9297.05
516.325	9274.68
516.538	9247.9
516.751	9208.21
516.964	9156.1
517.176	9097.39
517.389	9037.86
517.602	9005.25
517.814	8981.85
518.027	8973.9
518.24	8983.34
518.452	8989.25
518.665	8989.34
518.877	8972.15
519.09	8937.03
519.303	8888.05
519.515	8833.52
519.728	8782.15
519.94	8725.28
520.153	8661.41
520.365	8587.41
520.578	8493.19
520.79	8395.65
521.002	8307.26
521.215	8240.72
521.427	8196.65
521.64	8182.39
521.852	8170.3
522.064	8154.7
522.277	8124.95
522.489	8092.85
522.701	8065.55
522.914	8058.74
523.126	8066.55
523.338	8077.39
523.551	8084.99
523.763	8087.17
523.975	8068.9
524.187	8051.23
524.399	8031.9
524.612	8014.19
524.824	7999.46
525.036	7981.12
525.248	7953.66
525.46	7937.54
525.672	7933.12
525.884	7932.59
526.096	7938.25
526.308	7945.05
526.521	7941.92
526.733	7926.94
526.945	7903.19
527.157	7896.74
527.369	7907.12
527.581	7945.08
527.793	7986.77
528.004	8021.34
528.216	8047.94
528.428	8058.37
528.64	8064.06
528.852	8067.08
529.064	8075.79
529.276	8084.97
529.488	8064.41
529.699	8020.77
529.911	7943.45
530.123	7854.1
530.335	7769.1
530.547	7695.54
530.758	7646.63
530.97	7615.68
531.182	7594.75
531.393	7585.99
531.605	7602.05
531.817	7655.74
532.029	7741.68
532.24	7856.25
532.452	7981.7
532.663	8103.17
532.875	8223.28
533.087	8327.61
533.298	8428.25
533.51	8529.81
533.721	8627.55
533.933	8701.39
534.144	8742.57
534.356	8744.57
534.567	8710.23
534.779	8642.28
534.99	8557.5
535.202	8454.25
535.413	8339.54
535.624	8212.59
535.836	8092.86
536.047	7972.1
536.259	7871.32
536.47	7794.88
536.681	7758.65
536.893	7753.48
537.104	7782.99
537.315	7834.66
537.526	7905.85
537.738	7996.39
537.949	8098.26
538.16	8199.19
538.371	8290.14
538.582	8353.85
538.794	8373.14
539.005	8349.01
539.216	8307.15
539.427	8264.92
539.638	8229.43
539.849	8203.66
540.06	8178.85
540.272	8157.74
540.483	8138.65
540.694	8130.61
540.905	8141.63
541.116	8186.34
541.327	8240.97
541.538	8290.26
541.749	8323.75
541.96	8331.79
542.17	8333.15
542.381	8342.35
542.592	8357.88
542.803	8378.23
543.014	8406.72
543.225	8422.81
543.436	8429.5
543.647	8435.94
543.857	8435.94
544.068	8423.79
544.279	8400.68
544.49	8349.61
544.701	8270.5
544.911	8171.43
545.122	8064.55
545.333	7952.72
545.543	7855.37
545.754	7772.59
545.965	7713.75
546.175	7693.39
546.386	7731.61
546.597	7827.19
546.807	7968.15
547.018	8125.06
547.229	8278.25
547.439	8403.63
547.65	8476.25
547.86	8498.95
548.071	8480.66
548.281	8429.41
548.492	8347.79
548.702	8234.97
548.913	8085.9
549.123	7916.28
549.333	7749.14
549.544	7580.95
549.754	7422.32
549.965	7299.81
550.175	7212.61
550.385	7180.35
550.596	7199.25
550.806	7254.34
551.016	7330.54
551.227	7412.92
551.437	7472.7
551.647	7512.79
551.857	7556.57
552.068	7610.41
552.278	7679.26
552.488	7755.66
552.698	7800.37
552.908	7790.83
553.119	7722.08
553.329	7603.54
553.539	7478.52
553.749	7393.39
553.959	7351.57
554.169	7350.68
554.379	7372.35
554.589	7394.77
554.799	7418.35
555.009	7425.41
555.219	7429.23
555.429	7440.39
555.639	7446.43
555.849	7447.83
556.059	7438.55
556.269	7413.52
556.479	7368.65
556.689	7311.35
556.899	7239.7
557.109	7141.35
557.319	7043.68
557.528	6948.88
557.738	6868.17
557.948	6817.72
558.158	6784.03
558.368	6763.19
558.577	6768.14
558.787	6797.61
558.997	6848.55
559.207	6939.43
559.416	7064.95
559.626	7211.7
559.836	7380.14
560.045	7538.65
560.255	7672.77
560.465	7782.57
560.674	7857.85
560.884	7881.88
561.093	7861.74
561.303	7812.92
561.512	7736.41
561.722	7658.97
561.932	7589.01
562.141	7523.3
562.351	7484.59
562.56	7472.77
562.769	7493.83
562.979	7543.21
563.188	7619.54
563.398	7701.1
563.607	7786.15
563.817	7865.97
564.026	7931.05
564.235	7976.88
564.445	8008.06
564.654	8025.46
564.863	8037.94
565.073	8052.43
565.282	8073.72
565.491	8119.35
565.7	8238.54
565.91	8421.45
566.119	8655.28
566.328	8921.35
566.537	9197.3
566.746	9483.28
566.956	9788.21
567.165	10140.61
567.374	10530.08
567.583	10950.12
567.792	11426.5
568.001	11945.5
568.21	12531.57
568.419	13202.59
568.628	13925.5
568.837	14637.97
569.046	15314.21
569.255	15942.74
569.464	16554.81
569.673	17192.95
569.882	17853.23
570.091	18495.17
570.3	19089.75
570.509	19579.7
570.718	19932.43
570.927	20138.72
571.135	20200.01
571.344	20128.06
571.553	20079.05
571.762	20081.08
571.971	20192.79
572.18	20459.61
572.388	20760.74
572.597	21107.12
572.806	21469.54
573.014	21840.17
573.223	22277.12
573.432	22864.19
573.641	23571.35
573.849	24219.05
574.058	24693.55
574.266	24893.32
574.475	24746.39
574.684	24509.7
574.892	24226.81
575.101	23997.17
575.309	23939.08
575.518	23957.66
575.726	24010.74
575.935	24246.25
576.143	24723.08
576.352	25515.25
576.56	26613.77
576.769	27823.81
576.977	28841.65
577.186	29527.75
577.394	29795.1
577.602	29647.14
577.811	29327.17
578.019	28997.61
578.228	28619.15
578.436	28204.41
578.644	27718.1
578.852	27055.06
579.061	26395.23
579.269	25844.1
579.477	25486.48
579.685	25637.97
579.894	26484.32
580.102	27904.34
580.31	29757.25
580.518	31708.46
580.726	33322.12
580.935	34457.03
581.143	35121.61
581.351	35353.3
581.559	35266.77
581.767	34929.55
581.975	34169.28
582.183	32791.25
582.391	30893.12
582.599	28640.72
582.807	26357.1
583.015	24449.46
583.223	23036.34
583.431	22230.74
583.639	21984.57
583.847	22237.45
584.055	22890.57
584.263	23717.61
584.471	24576.9
584.678	25269.15
584.886	25637.08
585.094	25652.21
585.302	25382.23
585.51	24999.34
585.718	24547.48
585.925	24158.25
586.133	23827.81
586.341	23460.1
586.549	23114.95
586.756	22796.32
586.964	22574.7
587.172	22485.08
587.379	22499.92
587.587	22497.57
587.795	22267.79
588.002	21780.57
588.21	21060.99
588.417	20159.88
588.625	19254.97
588.833	18395.57
589.04	17606.17
589.248	16873.17
589.455	16179.05
589.663	15529.92
589.87	14973.95
590.078	14586.74
590.285	14361.23
590.492	14193.85
590.7	14015.12
590.907	13860.28
591.115	13887.17
591.322	14220.72
591.529	14878.15
591.737	15764.17
591.944	16681.72
592.151	17515.17
592.359	18197.12
592.566	18699.37
592.773	19042.41
592.981	19280.9
593.188	19466.74
593.395	19548.9
593.602	19528.5
593.809	19376.3
594.017	19052.41
594.224	18681.65
594.431	18276.79
594.638	17871.48
594.845	17519.95
595.052	17209.14
595.259	16936.65
595.466	16653.15
595.673	16314.14
595.88	15855.59
596.088	15353.99
596.295	14868.86
596.502	14423.97
596.709	14077.52
596.915	13817.74
597.122	13716.94
597.329	13897.34
597.536	14347.85
597.743	14922.5
597.95	15463.86
598.157	15823.54
598.364	15985.99
598.571	16099.1
598.777	16261.01
598.984	16508.08
599.191	16813.39
599.398	17063.79
599.605	17154.17
599.811	17065.17
600.018	16825.39
600.225	16556.86
600.431	16374.68
600.638	16235.05
600.845	16106.37
601.052	15972.68
601.258	15823.83
601.465	15730.9
601.671	15745.43
601.878	15824.79
602.085	15961.12
602.291	16118.99
602.498	16208.72
602.704	16195.28
602.911	16097.03
603.117	15904.03
603.324	15613.28
603.53	15287.66
603.737	14936.19
603.943	14526.25
604.15	14109.88
604.356	13714.03
604.562	13320.19
604.769	12958.61
604.975	12664.88
605.181	12432.63
605.388	12261.32
605.594	12191.99
605.8	12168.72
606.007	12116.06
606.213	11998.57
606.419	11768.5
606.625	11398.68
606.832	11005.94
607.038	10649.45
607.244	10358.54
607.45	10157.43
607.656	9973.57
607.863	9709.55
608.069	9389.34
608.275	9107.15
608.481	8938.9
608.687	8883.86
608.893	8882.65
609.099	8859.55
609.305	8796.05
609.511	8695.06
609.717	8573.32
609.923	8498.34
610.129	8475.34
610.335	8472.3
610.541	8417.1
610.747	8207.21
610.953	7884.39
611.159	7570.14
611.365	7325.3
611.571	7166.35
611.776	7054.79
611.982	6923.85
612.188	6774.32
612.394	6632.68
612.6	6495.15
612.806	6368.86
613.011	6285.19
613.217	6220.1
613.423	6125.65
613.628	6013.55
613.834	5891.52
614.04	5790.85
614.246	5727.95
614.451	5631.99
614.657	5477.9
614.862	5286.45
615.068	5074.48
615.274	4872.68
615.479	4707.63
615.685	4570.26
615.89	4436.66
616.096	4304.75
616.301	4148.63
616.507	3982.77
616.712	3846.88
616.918	3741.25
617.123	3646.74
617.329	3556.77
617.534	3457.01
617.74	3342.97
617.945	3225.15
618.15	3102.21
618.356	2936.68
618.561	2668.15
618.766	2347.61
618.972	2019.54
619.177	1714.5
619.382	1439.28
619.588	1190.05
619.793	1052.46
619.998	887.14
620.203	683.72
620.408	428.3
620.614	163.2
