Data from MAYP1115451__1__15-29-02-278.txt Node

Date: Thu May 16 15:29:02 MDT 2024
User: Modes Lab
Spectrometer: MAYP111545
Trigger mode: 0
Integration Time (sec): 1.000000E-2
Scans to average: 5
Electric dark correction enabled: true
Nonlinearity correction enabled: false
Boxcar width: 5
XAxis mode: Wavelengths
Number of Pixels in Spectrum: 2068
>>>>>Begin Spectral Data<<<<<
165.214	154.47
165.449	151.46
165.683	159.78
165.918	166.8
166.152	172.5
166.387	177.42
166.621	107.02
166.856	143.98
167.09	160.85
167.325	180.76
167.559	196
167.794	210.24
168.028	218.25
168.263	218.75
168.497	218
168.732	217.8
168.966	217.91
169.2	217.65
169.435	217.85
169.669	218.09
169.903	219.8
170.138	220.6
170.372	221
170.606	221.25
170.841	220.71
171.075	221.58
171.309	221.8
171.544	221.24
171.778	221.67
172.012	222.07
172.246	221.78
172.48	221.65
172.715	222.24
172.949	222.42
173.183	222.22
173.417	222.6
173.651	222.58
173.885	222.78
174.119	222.64
174.354	223.62
174.588	223.02
174.822	222.89
175.056	222.96
175.29	223.07
175.524	222.75
175.758	223.27
175.992	224.2
176.226	223.45
176.46	224.02
176.694	224.35
176.928	224.4
177.162	225.65
177.396	226.07
177.63	227.2
177.864	227.55
178.097	228.85
178.331	229.25
178.565	229.38
178.799	231.05
179.033	230.64
179.267	231.24
179.5	231.29
179.734	231.11
179.968	232.24
180.202	231.76
180.436	232.47
180.669	232.67
180.903	232.13
181.137	232.2
181.371	232.16
181.604	232.05
181.838	232.02
182.072	231.85
182.305	232.07
182.539	232.18
182.772	232.91
183.006	233.27
183.24	232.42
183.473	235.29
183.707	236.18
183.94	236.93
184.174	238.6
184.408	240.22
184.641	241.44
184.875	242.15
185.108	242.91
185.342	243.25
185.575	243.85
185.808	244.65
186.042	243.84
186.275	244.55
186.509	245.24
186.742	246.55
186.976	247.29
187.209	247.93
187.442	248.87
187.676	249.96
187.909	251.09
188.142	252.22
188.376	253.53
188.609	254.15
188.842	254.71
189.076	256.47
189.309	256.93
189.542	258.82
189.775	261.15
190.009	263.96
190.242	265.33
190.475	267.11
190.708	269.56
190.941	272.76
191.174	275.91
191.408	278.76
191.641	281.78
191.874	285.13
192.107	289.02
192.34	293.22
192.573	298.67
192.806	305.69
193.039	312.47
193.272	320.29
193.505	329.56
193.738	340.85
193.971	354.13
194.204	368.25
194.437	384.87
194.67	402.04
194.903	421.75
195.136	442.65
195.369	466.93
195.602	493.04
195.835	521.91
196.068	552.98
196.301	587.58
196.533	624.95
196.766	663.62
196.999	704.07
197.232	745.89
197.465	790.93
197.698	838.31
197.93	887.95
198.163	940.25
198.396	992.47
198.629	1045.84
198.861	1101.49
199.094	1156.85
199.327	1213.87
199.559	1273.09
199.792	1333.96
200.025	1395.82
200.257	1457.78
200.49	1520.71
200.723	1582.15
200.955	1650.45
201.188	1717.98
201.42	1783.24
201.653	1850.53
201.886	1921.25
202.118	1991.13
202.351	2060.58
202.583	2130.93
202.816	2205.53
203.048	2281.15
203.281	2359.76
203.513	2433.84
203.745	2513.55
203.978	2595.75
204.21	2680.04
204.443	2762.53
204.675	2846.82
204.907	2936.24
205.14	3025.89
205.372	3118.25
205.605	3207.89
205.837	3304.18
206.069	3403.02
206.302	3498.58
206.534	3594.55
206.766	3693.29
206.998	3798.24
207.231	3906.75
207.463	4017.78
207.695	4130.62
207.927	4241.69
208.159	4358.76
208.392	4471.49
208.624	4592.22
208.856	4716.73
209.088	4843.85
209.32	4972.82
209.552	5101.29
209.784	5229.71
210.017	5358.13
210.249	5491.76
210.481	5630
210.713	5770.91
210.945	5913.87
211.177	6055.44
211.409	6203.42
211.641	6351.04
211.873	6497.8
212.105	6649.04
212.337	6809.55
212.569	6969.6
212.801	7135.25
213.033	7299.85
213.264	7461.16
213.496	7627.8
213.728	7798.47
213.96	7971.8
214.192	8151.87
214.424	8342.27
214.656	8527.95
214.887	8711.69
215.119	8901.2
215.351	9085.75
215.583	9268.09
215.815	9466.35
216.046	9666.13
216.278	9861.38
216.51	10060.4
216.741	10261.04
216.973	10452.15
217.205	10654.27
217.436	10859.11
217.668	11065.15
217.9	11275.24
218.131	11491.89
218.363	11705.04
218.595	11922.02
218.826	12139.95
219.058	12357.35
219.289	12574.8
219.521	12804.76
219.752	13029.93
219.984	13255.69
220.215	13487.64
220.447	13717.93
220.678	13956.96
220.91	14192
221.141	14429.24
221.373	14673.73
221.604	14920.45
221.836	15170.98
222.067	15421.18
222.298	15675.04
222.53	15932.31
222.761	16193.93
222.993	16459.02
223.224	16723.58
223.455	16991.82
223.686	17259.27
223.918	17530.44
224.149	17806.82
224.38	18083.67
224.612	18359.13
224.843	18646.4
225.074	18933.67
225.305	19213.64
225.536	19496.07
225.768	19785.75
225.999	20073.29
226.23	20360.64
226.461	20649.15
226.692	20929.67
226.923	21219.53
227.155	21512.16
227.386	21801.42
227.617	22097.02
227.848	22390.95
228.079	22697.18
228.31	22991.58
228.541	23298.04
228.772	23609.67
229.003	23922.07
229.234	24235.84
229.465	24544
229.696	24849.13
229.927	25149.87
230.158	25452.29
230.389	25762.04
230.62	26073.29
230.85	26388.16
231.081	26696.15
231.312	27003.24
231.543	27310.15
231.774	27623.95
232.005	27934.16
232.236	28249.98
232.466	28567.95
232.697	28878.33
232.928	29185.49
233.159	29479.55
233.389	29775.31
233.62	30069.07
233.851	30356.91
234.082	30632.8
234.312	30907.33
234.543	31168.98
234.774	31430.25
235.004	31674.85
235.235	31914.58
235.466	32152.44
235.696	32386.47
235.927	32624.04
236.157	32856.78
236.388	33102.78
236.618	33331.02
236.849	33552.93
237.08	33787.93
237.31	34004.6
237.541	34220.29
237.771	34442.65
238.002	34658.58
238.232	34870.45
238.463	35066.4
238.693	35263.49
238.923	35438.49
239.154	35627.64
239.384	35801.02
239.615	35971.29
239.845	36142.24
240.075	36326.11
240.306	36493.49
240.536	36662.38
240.766	36823.56
240.997	36981.53
241.227	37133.84
241.457	37287.53
241.687	37431.95
241.918	37594.6
242.148	37746.45
242.378	37908.71
242.608	38058.13
242.839	38198.75
243.069	38330.4
243.299	38470.53
243.529	38602.56
243.759	38731.16
243.989	38860.27
244.22	39000.15
244.45	39126.49
244.68	39245.13
244.91	39358.56
245.14	39466.13
245.37	39590.31
245.6	39714.56
245.83	39829.87
246.06	39961.31
246.29	40082.84
246.52	40198.67
246.75	40320.07
246.98	40446.15
247.21	40570.93
247.44	40690.75
247.67	40814.95
247.9	40932.53
248.13	41031.2
248.359	41153
248.589	41255.96
248.819	41366.89
249.049	41482.11
249.279	41584.47
249.509	41670
249.738	41759.73
249.968	41848.65
250.198	41936.76
250.428	42021.65
250.657	42133.93
250.887	42217.35
251.117	42316.13
251.347	42413.36
251.576	42503
251.806	42588.91
252.036	42682.35
252.265	42773.2
252.495	42858.25
252.725	42952.42
252.954	43029.53
253.184	43103.35
253.413	43176.96
253.643	43238.35
253.873	43300.89
254.102	43359.95
254.332	43430.65
254.561	43480.51
254.791	43538.71
255.02	43602.47
255.25	43648.2
255.479	43716.67
255.708	43764.8
255.938	43814.05
256.167	43859.42
256.397	43889.65
256.626	43920.78
256.856	43938.15
257.085	43972.35
257.314	43991.96
257.544	44008.96
257.773	44027.29
258.002	44040.44
258.232	44067.64
258.461	44093.25
258.69	44111.42
258.919	44141.73
259.149	44171.71
259.378	44205.87
259.607	44239.27
259.836	44285.62
260.065	44327.35
260.295	44370.47
260.524	44399.33
260.753	44432.09
260.982	44462.71
261.211	44506.31
261.44	44538.62
261.669	44576.82
261.899	44611.38
262.128	44637.87
262.357	44656.56
262.586	44667.76
262.815	44672.05
263.044	44683.4
263.273	44686.49
263.502	44690.45
263.731	44692.29
263.96	44700.05
264.189	44701.87
264.418	44706.91
264.646	44710.49
264.875	44725.45
265.104	44746.07
265.333	44774.53
265.562	44799.53
265.791	44808.4
266.02	44827.93
266.249	44838.25
266.477	44853.84
266.706	44872.85
266.935	44889.64
267.164	44926.84
267.393	44955.71
267.621	44987.76
267.85	45013.35
268.079	45032.73
268.307	45077.02
268.536	45116.45
268.765	45164.87
268.993	45204.09
269.222	45245.15
269.451	45288.6
269.679	45318.07
269.908	45352.56
270.137	45390.58
270.365	45442.25
270.594	45505.31
270.822	45562
271.051	45620.24
271.279	45674.45
271.508	45740.4
271.736	45816.89
271.965	45886.51
272.193	45966
272.422	46039.33
272.65	46117.13
272.879	46190.15
273.107	46258.47
273.336	46337.24
273.564	46415.04
273.792	46494.22
274.021	46567.62
274.249	46628.96
274.477	46702.56
274.706	46786.2
274.934	46869.15
275.162	46960.31
275.391	47051.93
275.619	47154
275.847	47242.05
276.075	47339.51
276.304	47443.78
276.532	47561.98
276.76	47664.04
276.988	47768.42
277.216	47865.04
277.445	47965.64
277.673	48066.05
277.901	48156.76
278.129	48255.36
278.357	48355.71
278.585	48452.56
278.813	48553.56
279.041	48657.53
279.269	48789.53
279.497	48906.71
279.725	49027.73
279.954	49154.4
280.182	49271.85
280.41	49402.82
280.637	49525.75
280.865	49652.62
281.093	49768.51
281.321	49888.22
281.549	49989.42
281.777	50092.22
282.005	50198.45
282.233	50310.33
282.461	50412.53
282.689	50510.98
282.916	50628.11
283.144	50739.73
283.372	50858.13
283.6	50980.65
283.828	51098.84
284.055	51226.69
284.283	51339.64
284.511	51463.02
284.739	51568.13
284.966	51677.05
285.194	51795.22
285.422	51890.85
285.649	51998.11
285.877	52096.69
286.105	52196.78
286.332	52301.29
286.56	52399.84
286.788	52500.04
287.015	52604.24
287.243	52718.95
287.47	52843.47
287.698	52955.67
287.925	53070.31
288.153	53182.96
288.381	53291.55
288.608	53405.42
288.836	53515.53
289.063	53633.69
289.29	53759.25
289.518	53873.84
289.745	53988.49
289.973	54104
290.2	54217.35
290.428	54328.85
290.655	54438.25
290.882	54550.91
291.11	54657.67
291.337	54759.31
291.564	54868.04
291.792	54972.91
292.019	55071.53
292.246	55168.8
292.473	55249.96
292.701	55341.91
292.928	55430.15
293.155	55524.76
293.382	55608.51
293.61	55704.38
293.837	55788.64
294.064	55868.71
294.291	55944.4
294.518	56022.27
294.745	56088.45
294.972	56175.55
295.2	56235.65
295.427	56318.29
295.654	56383.42
295.881	56461.27
296.108	56525.98
296.335	56594.47
296.562	56668.22
296.789	56728.07
297.016	56783.2
297.243	56845.87
297.47	56892.05
297.697	56950.44
297.924	56994.33
298.151	57037.69
298.378	57070.73
298.604	57095.42
298.831	57118.16
299.058	57129.16
299.285	57165.71
299.512	57194.09
299.739	57218.93
299.966	57232.33
300.192	57248.62
300.419	57239.29
300.646	57232.87
300.873	57225.24
301.099	57221.65
301.326	57222.47
301.553	57218.67
301.78	57199.76
302.006	57176.98
302.233	57148.24
302.46	57136.24
302.686	57121.64
302.913	57111.27
303.14	57088.25
303.366	57065.89
303.593	57031.78
303.819	57015.02
304.046	56984.31
304.272	56939.64
304.499	56913.13
304.725	56886.84
304.952	56854.44
305.179	56817.44
305.405	56774.25
305.631	56743.95
305.858	56707.33
306.084	56681.91
306.311	56635.47
306.537	56594.89
306.764	56564.44
306.99	56525.16
307.216	56479.18
307.443	56425.27
307.669	56370.65
307.895	56343.15
308.122	56308.98
308.348	56268.75
308.574	56214.44
308.801	56160.96
309.027	56102.07
309.253	56034.07
309.479	55963.22
309.706	55903.98
309.932	55840.07
310.158	55772.51
310.384	55696.69
310.61	55623.78
310.837	55549.69
311.063	55491.82
311.289	55431.42
311.515	55362.51
311.741	55301.24
311.967	55234.65
312.193	55157.44
312.419	55093.75
312.645	55019.05
312.871	54933.93
313.097	54856.29
313.323	54769.69
313.549	54688.75
313.775	54594.05
314.001	54521.78
314.227	54428.2
314.453	54345.51
314.679	54259.87
314.905	54158.95
315.131	54072.04
315.357	53984.42
315.583	53885.67
315.809	53804.56
316.034	53710.95
316.26	53628.13
316.486	53528.25
316.712	53447.84
316.938	53354.11
317.163	53265.38
317.389	53172.45
317.615	53075.36
317.841	52988.87
318.066	52896.44
318.292	52808.25
318.518	52708.96
318.743	52621
318.969	52539.98
319.195	52434.75
319.42	52349.69
319.646	52259.91
319.872	52176.51
320.097	52096.4
320.323	52002.62
320.548	51912.25
320.774	51817.27
320.999	51723.84
321.225	51619.16
321.45	51520.64
321.676	51450.8
321.901	51367.22
322.127	51289.96
322.352	51210.98
322.578	51134.69
322.803	51070.35
323.029	51005.31
323.254	50934.07
323.479	50860.45
323.705	50800.69
323.93	50729.71
324.155	50662.47
324.381	50588.31
324.606	50517.69
324.831	50453.75
325.057	50375.31
325.282	50287.24
325.507	50192.65
325.732	50115.44
325.958	50053.05
326.183	49971.18
326.408	49882.07
326.633	49787.31
326.858	49699.76
327.084	49616.35
327.309	49526.24
327.534	49454.04
327.759	49391.76
327.984	49326.31
328.209	49251.11
328.434	49172.58
328.659	49104.69
328.884	49050.84
329.109	48989.64
329.334	48932.07
329.559	48854.13
329.784	48778.45
330.009	48702.27
330.234	48607.87
330.459	48520.51
330.684	48449.67
330.909	48364.35
331.134	48280.47
331.359	48188.15
331.584	48098.58
331.809	48013.33
332.034	47934.27
332.259	47850.07
332.483	47763.07
332.708	47684.95
332.933	47607.76
333.158	47521
333.383	47456.47
333.607	47368.22
333.832	47290.69
334.057	47219.75
334.282	47153.15
334.506	47089.8
334.731	47024.24
334.956	46953.85
335.18	46892.71
335.405	46825.55
335.63	46744.45
335.854	46651.15
336.079	46575.95
336.303	46495.98
336.528	46414.24
336.753	46322.38
336.977	46227.31
337.202	46143.51
337.426	46063.65
337.651	45969.98
337.875	45891.02
338.1	45816.38
338.324	45728.78
338.549	45646.93
338.773	45565.15
338.997	45484.51
339.222	45406.15
339.446	45335.84
339.671	45253.16
339.895	45168.67
340.119	45101
340.344	45017.93
340.568	44946.22
340.792	44877.71
341.017	44803.44
341.241	44726
341.465	44640.4
341.689	44551.71
341.914	44458.84
342.138	44374.11
342.362	44288.53
342.586	44189.87
342.811	44095.02
343.035	43978.89
343.259	43878.27
343.483	43778.58
343.707	43680.4
343.931	43580.44
344.155	43495.09
344.38	43406.13
344.604	43320.71
344.828	43231
345.052	43145.93
345.276	43051.6
345.5	42979.73
345.724	42899.96
345.948	42816.93
346.172	42750.33
346.396	42674.22
346.62	42605.13
346.844	42529.04
347.068	42428.91
347.292	42336.15
347.515	42234.64
347.739	42144.45
347.963	42040.2
348.187	41950.96
348.411	41841.04
348.635	41725.47
348.859	41618.51
349.082	41488.11
349.306	41367.78
349.53	41261.62
349.754	41160.16
349.977	41058.38
350.201	40951.78
350.425	40857.25
350.649	40744.16
350.872	40657.69
351.096	40554.91
351.32	40457.27
351.543	40350.05
351.767	40248.96
351.99	40148.29
352.214	40032.71
352.438	39921.65
352.661	39813.47
352.885	39705.31
353.108	39596.53
353.332	39477.95
353.555	39368.13
353.779	39249.38
354.002	39147.33
354.226	39030.51
354.449	38921.45
354.673	38824.82
354.896	38718.87
355.12	38617.29
355.343	38502.02
355.566	38403.13
355.79	38305.02
356.013	38217.16
356.237	38125.89
356.46	38034.53
356.683	37933.93
356.907	37824.55
357.13	37721.22
357.353	37610.25
357.576	37516.96
357.8	37418.2
358.023	37308.96
358.246	37203.24
358.469	37082.84
358.693	36966.71
358.916	36845.67
359.139	36743.93
359.362	36640.04
359.585	36527.38
359.808	36441.64
360.031	36331.33
360.255	36234.05
360.478	36135.95
360.701	36038.15
360.924	35938.11
361.147	35849.58
361.37	35773.11
361.593	35689.42
361.816	35601.56
362.039	35521.64
362.262	35423.18
362.485	35333.07
362.708	35236.78
362.931	35140.76
363.154	35045.73
363.377	34962.25
363.599	34873.98
363.822	34784.58
364.045	34688.93
364.268	34607.24
364.491	34529.71
364.714	34469.91
364.936	34416.09
365.159	34387.8
365.382	34363.11
365.605	34354.51
365.828	34345.89
366.05	34330.76
366.273	34317.31
366.496	34313.55
366.718	34299.33
366.941	34258.67
367.164	34215.09
367.386	34158.02
367.609	34086.55
367.832	34005.13
368.054	33911.82
368.277	33798.89
368.5	33685.91
368.722	33550.73
368.945	33405.64
369.167	33265.71
369.39	33143.07
369.612	32999.93
369.835	32872.09
370.057	32745.58
370.28	32630.98
370.502	32511.4
370.725	32408.11
370.947	32309.67
371.169	32224.16
371.392	32150.6
371.614	32076.16
371.837	31998.31
372.059	31934.45
372.281	31875.24
372.504	31813.13
372.726	31746.22
372.948	31684.09
373.171	31639.82
373.393	31609.73
373.615	31584.93
373.837	31577.47
374.06	31585.02
374.282	31605.6
374.504	31625.02
374.726	31631.98
374.948	31634.11
375.17	31628.71
375.393	31626.89
375.615	31609.89
375.837	31596.27
376.059	31587.62
376.281	31591.27
376.503	31597.4
376.725	31609.58
376.947	31640.15
377.169	31674.27
377.391	31719.05
377.613	31789.15
377.835	31891.67
378.057	32014.16
378.279	32131.89
378.501	32213.36
378.723	32233.87
378.945	32223.18
379.167	32185.69
379.389	32156.25
379.611	32130.16
379.833	32080.24
380.054	32007.33
380.276	31882.22
380.498	31724.84
380.72	31575.4
380.942	31472.84
381.163	31434.35
381.385	31440.24
381.607	31464.56
381.829	31464.56
382.05	31431.09
382.272	31393.8
382.494	31362.69
382.716	31344.16
382.937	31344.05
383.159	31331.55
383.381	31302.35
383.602	31249.75
383.824	31176.62
384.045	31086.55
384.267	30991.73
384.488	30925.49
384.71	30880.15
384.932	30850.82
385.153	30842.62
385.375	30830.47
385.596	30835.67
385.818	30860.15
386.039	30913.91
386.261	30984.47
386.482	31084.44
386.703	31209.53
386.925	31343.35
387.146	31481.64
387.368	31615.56
387.589	31732.36
387.81	31822.93
388.032	31843.71
388.253	31793.49
388.474	31671.25
388.696	31523.02
388.917	31364.15
389.138	31200.73
389.359	31049.31
389.581	30900.89
389.802	30746.13
390.023	30616.18
390.244	30512.27
390.465	30462.02
390.687	30502.69
390.908	30628.47
391.129	30821.65
391.35	31052.33
391.571	31318.29
391.792	31605.78
392.013	31877.47
392.234	32106.05
392.455	32255.42
392.677	32347.53
392.898	32414.82
393.119	32443.53
393.34	32442.53
393.561	32388.53
393.782	32296.38
394.003	32132.13
394.223	31896.42
394.444	31651.22
394.665	31434.96
394.886	31285.35
395.107	31195.15
395.328	31147.82
395.549	31131.62
395.77	31111.85
395.99	31107.45
396.211	31133.29
396.432	31221.49
396.653	31382.71
396.874	31610.07
397.094	31887.11
397.315	32190.42
397.536	32501.98
397.757	32752.29
397.977	32916.24
398.198	33006.33
398.419	33037.33
398.639	33010.45
398.86	32921.49
399.081	32743.04
399.301	32498.47
399.522	32225.64
399.742	31925.71
399.963	31623.91
400.184	31358.25
400.404	31112.58
400.625	30901.16
400.845	30716.45
401.066	30551.87
401.286	30409.58
401.507	30323.45
401.727	30260.38
401.948	30186.58
402.168	30099.35
402.388	30010.07
402.609	29930.11
402.829	29909.07
403.05	29928.62
403.27	29967.8
403.49	30038.93
403.711	30136.78
403.931	30260.64
404.151	30400.91
404.372	30559.44
404.592	30712.29
404.812	30828.53
405.032	30879.4
405.253	30841.69
405.473	30741.27
405.693	30601.71
405.913	30405.33
406.133	30157.25
406.353	29870.87
406.574	29553.91
406.794	29234.73
407.014	28951.93
407.234	28732.44
407.454	28604.8
407.674	28548.07
407.894	28534.24
408.114	28539.33
408.334	28563.96
408.554	28611.42
408.774	28687.44
408.994	28773.22
409.214	28817.38
409.434	28792.36
409.654	28700.09
409.874	28584.58
410.094	28467.53
410.314	28356.29
410.534	28266.11
410.754	28185.89
410.974	28150.2
411.193	28121.62
411.413	28141.44
411.633	28226.13
411.853	28360.95
412.073	28518.18
412.292	28665.33
412.512	28780.96
412.732	28877.85
412.952	28923.36
413.171	28928.49
413.391	28875.15
413.611	28794.98
413.831	28672.22
414.05	28518.04
414.27	28343.4
414.489	28165.29
414.709	27982.05
414.929	27816.85
415.148	27680.18
415.368	27586.42
415.587	27527.84
415.807	27472.64
416.026	27398.31
416.246	27317
416.465	27240.24
416.685	27165.13
416.904	27097.29
417.124	27035.84
417.343	26976.24
417.563	26919.85
417.782	26866.11
418.002	26833.73
418.221	26822.51
418.44	26837.22
418.66	26859.45
418.879	26885.04
419.098	26936.93
419.318	27040.16
419.537	27191.85
419.756	27385.62
419.976	27627.65
420.195	27929.84
420.414	28277.07
420.633	28671.4
420.853	29051.09
421.072	29388.44
421.291	29664.55
421.51	29893.02
421.729	30054.93
421.948	30171.35
422.168	30272.91
422.387	30317.09
422.606	30256.58
422.825	30069.25
423.044	29778.58
423.263	29446.4
423.482	29148.07
423.701	28910.91
423.92	28716.27
424.139	28530.29
424.358	28318.33
424.577	28025.38
424.796	27675.27
425.015	27332.04
425.234	27036.82
425.453	26811.27
425.672	26651.55
425.891	26555.33
426.11	26526.95
426.328	26579.07
426.547	26667.18
426.766	26719.78
426.985	26748.56
427.204	26757.42
427.422	26790.73
427.641	26866.84
427.86	26950.6
428.079	27059.44
428.297	27195.8
428.516	27358.91
428.735	27512.58
428.954	27692.89
429.172	27927.98
429.391	28206.02
429.61	28514.07
429.828	28791.38
430.047	28966.04
430.265	29029.89
430.484	28955.85
430.703	28708.56
430.921	28305.04
431.14	27781.45
431.358	27216.22
431.577	26659.35
431.795	26153.44
432.014	25723.53
432.232	25448.98
432.451	25397.07
432.669	25602.78
432.887	25960.29
433.106	26298.07
433.324	26526.09
433.543	26629.44
433.761	26665.55
433.979	26738.78
434.198	26828.13
434.416	26878.53
434.634	26809.78
434.853	26574.55
435.071	26180.27
435.289	25781.89
435.507	25511.87
435.726	25406.75
435.944	25423.95
436.162	25437.44
436.38	25381.16
436.598	25300.11
436.817	25249.04
437.035	25223.35
437.253	25240.56
437.471	25265.42
437.689	25242.98
437.907	25190.53
438.125	25110.75
438.343	25049.22
438.561	25029.31
438.78	25012.13
438.998	24981.25
439.216	24916.38
439.434	24854.38
439.652	24838.38
439.869	24936.89
440.087	25174.89
440.305	25531.56
440.523	25944.91
440.741	26332.62
440.959	26667.44
441.177	26946.02
441.395	27174.82
441.613	27383.36
441.831	27570.58
442.048	27724.75
442.266	27782.67
442.484	27728.16
442.702	27564.24
442.919	27348.2
443.137	27160.56
443.355	27024.24
443.573	26962.11
443.79	26960.67
444.008	26978.36
444.226	26979.84
444.443	26920.89
444.661	26806.95
444.879	26659.29
445.096	26535.8
445.314	26448.38
445.532	26391.53
445.749	26325.82
445.967	26234.98
446.184	26114.33
446.402	25982.71
446.619	25853.33
446.837	25734.58
447.054	25615.29
447.272	25485.76
447.489	25340.62
447.707	25184.69
447.924	25047.24
448.141	24938.25
448.359	24862.85
448.576	24815.6
448.794	24766.51
449.011	24723.87
449.228	24672.84
449.446	24630.35
449.663	24578.29
449.88	24481.96
450.098	24354.85
450.315	24179.44
450.532	24009.78
450.749	23851.13
450.967	23709.93
451.184	23579.22
451.401	23438.64
451.618	23306.31
451.835	23154.24
452.052	23009.84
452.27	22875.71
452.487	22750.67
452.704	22637.45
452.921	22514.4
453.138	22372.84
453.355	22202.93
453.572	22054.15
453.789	21959.11
454.006	21920.25
454.223	21940.65
454.44	21977.27
454.657	22009.89
454.874	22013.73
455.091	21993.49
455.308	21965.2
455.525	21951.98
455.742	21973.33
455.959	22009.93
456.176	22046.31
456.393	22066.55
456.609	22083.53
456.826	22127.35
457.043	22224.04
457.26	22371.27
457.477	22559.67
457.693	22739.49
457.91	22903.4
458.127	23039.05
458.344	23137.4
458.56	23193.6
458.777	23198.4
458.994	23143.65
459.21	23010.65
459.427	22809.35
459.644	22590.55
459.86	22359.82
460.077	22163.04
460.294	21972.95
460.51	21744.84
460.727	21468.93
460.943	21140.84
461.16	20810.44
461.376	20509.24
461.593	20283.93
461.809	20128.87
462.026	20037.16
462.242	19976.04
462.459	19964.73
462.675	19996.78
462.892	20089.15
463.108	20271.33
463.324	20520.15
463.541	20815.11
463.757	21137.44
463.974	21443.25
464.19	21706.36
464.406	21925.44
464.623	22125.42
464.839	22230.53
465.055	22260.58
465.271	22201.07
465.488	22028.76
465.704	21777.6
465.92	21468.16
466.136	21118.29
466.353	20766.44
466.569	20426.93
466.785	20087
467.001	19749.4
467.217	19433.24
467.433	19127.16
467.649	18861.84
467.865	18638.11
468.082	18443.82
468.298	18254.31
468.514	18061.65
468.73	17831.69
468.946	17591.51
469.162	17331.58
469.378	17056.22
469.594	16796.78
469.81	16567.71
470.026	16367.91
470.242	16215.04
470.457	16113.33
470.673	16046.38
470.889	16001.24
471.105	16008.53
471.321	16053.49
471.537	16134.09
471.753	16260.42
471.968	16412.73
472.184	16584.58
472.4	16753.07
472.616	16898.07
472.832	17012.29
473.047	17096.89
473.263	17168.69
473.479	17226.38
473.694	17285.07
473.91	17368.11
474.126	17441.49
474.341	17499.87
474.557	17528.04
474.773	17522.22
474.988	17505.64
475.204	17501.51
475.42	17510.09
475.635	17534.75
475.851	17517.98
476.066	17468.84
476.282	17363.13
476.497	17244.38
476.713	17154.96
476.928	17109.31
477.144	17121.96
477.359	17152.49
477.575	17158.76
477.79	17154.91
478.005	17126.13
478.221	17133.44
478.436	17160.82
478.651	17238.75
478.867	17325.38
479.082	17395.15
479.297	17438.65
479.513	17434.65
479.728	17426.69
479.943	17442
480.159	17482.87
480.374	17563.71
480.589	17660.87
480.804	17743.8
481.019	17770.85
481.235	17744.36
481.45	17661.51
481.665	17541.36
481.88	17453.22
482.095	17393.85
482.31	17356.53
482.525	17337.84
482.741	17323.24
482.956	17312.56
483.171	17356.36
483.386	17463.4
483.601	17619.49
483.816	17828.45
484.031	18226.16
484.246	19453.8
484.461	21782.91
484.676	25021.24
484.891	28941.49
485.105	32643.93
485.32	35405.15
485.535	37165.11
485.75	37934.76
485.965	38060.8
486.18	38000.29
486.395	37744.18
486.609	36604.35
486.824	34287.84
487.039	30984.07
487.254	26919.45
487.469	23027.25
487.683	20053.11
487.898	18030.04
488.113	16964.6
488.327	16525.2
488.542	16259.11
488.757	16023.75
488.972	15840.04
489.186	15692.64
489.401	15602.2
489.615	15564.98
489.83	15540.49
490.045	15505.45
490.259	15447.6
490.474	15353.85
490.688	15230.84
490.903	15091.22
491.117	14950.4
491.332	14819.78
491.546	14720.2
491.761	14631.22
491.975	14551.2
492.19	14483.44
492.404	14420.05
492.618	14370.49
492.833	14326.55
493.047	14302.84
493.262	14276.4
493.476	14242.29
493.69	14179
493.905	14083.22
494.119	13953.36
494.333	13805.4
494.547	13674.18
494.762	13586.07
494.976	13563.51
495.19	13612.64
495.404	13666.73
495.619	13717.47
495.833	13729.85
496.047	13701.64
496.261	13644.96
496.475	13585.64
496.689	13537.11
496.903	13476
497.117	13408.02
497.332	13309.62
497.546	13182.13
497.76	13061.45
497.974	12969.58
498.188	12926.04
498.402	12936.05
498.616	12994.73
498.83	13059.73
499.044	13104.58
499.258	13109.36
499.472	13058.47
499.685	12993.05
499.899	12931.09
500.113	12886.15
500.327	12832.24
500.541	12785.42
500.755	12742.91
500.969	12701.02
501.183	12685.13
501.396	12694.45
501.61	12720.04
501.824	12771.82
502.038	12811.4
502.251	12809.15
502.465	12771.24
502.679	12710.16
502.892	12612.42
503.106	12490.09
503.32	12352.6
503.533	12208.64
503.747	12075.47
503.961	11970.56
504.174	11866.69
504.388	11763.29
504.602	11659.4
504.815	11574.56
505.029	11515.2
505.242	11487.78
505.456	11489.38
505.669	11481.8
505.883	11447.93
506.096	11372.35
506.31	11276.84
506.523	11184.09
506.736	11107.36
506.95	11058.29
507.163	11008.98
507.377	10953.65
507.59	10883.27
507.803	10797.8
508.017	10719.27
508.23	10667.16
508.443	10644.47
508.657	10635.04
508.87	10621.62
509.083	10591.71
509.296	10545.07
509.51	10499.09
509.723	10453.69
509.936	10420.2
510.149	10404
510.363	10412.85
510.576	10419.04
510.789	10412.31
511.002	10385
511.215	10340.82
511.428	10298.22
511.641	10257.44
511.854	10215.78
512.067	10161.96
512.28	10112.38
512.493	10052.6
512.707	9985.35
512.92	9927.29
513.132	9887.25
513.345	9862.36
513.558	9839.53
513.771	9800.24
513.984	9747.11
514.197	9683.04
514.41	9631.51
514.623	9585.04
514.836	9549.69
515.049	9535.05
515.262	9512.55
515.474	9492.07
515.687	9466
515.9	9443.64
516.113	9417.33
516.325	9396.05
516.538	9369.18
516.751	9331.73
516.964	9281.45
517.176	9225.93
517.389	9161.75
517.602	9125.35
517.814	9100.73
518.027	9094.44
518.24	9097.09
518.452	9107.95
518.665	9105.45
518.877	9082.36
519.09	9042.09
519.303	8988.78
519.515	8931.91
519.728	8878.36
519.94	8819.02
520.153	8755.31
520.365	8680.31
520.578	8592.4
520.79	8500.84
521.002	8410.8
521.215	8346.62
521.427	8308.44
521.64	8290.73
521.852	8281.75
522.064	8267.18
522.277	8241.09
522.489	8208.55
522.701	8180.44
522.914	8171.96
523.126	8174.27
523.338	8186.09
523.551	8197.65
523.763	8196.76
523.975	8185.85
524.187	8164.35
524.399	8148.15
524.612	8137.91
524.824	8123.76
525.036	8108.51
525.248	8086.31
525.46	8068.95
525.672	8067.15
525.884	8061.25
526.096	8063.45
526.308	8067.33
526.521	8063.71
526.733	8043.38
526.945	8017.71
527.157	8004.71
527.369	8013.31
527.581	8042.89
527.793	8086.8
528.004	8117.89
528.216	8147.24
528.428	8163.07
528.64	8168.42
528.852	8176.16
529.064	8185.02
529.276	8188.36
529.488	8171
529.699	8123.42
529.911	8046.62
530.123	7952.35
530.335	7869.69
530.547	7799.31
530.758	7747.82
530.97	7707.16
531.182	7680.24
531.393	7671.62
531.605	7692.64
531.817	7744.91
532.029	7830.64
532.24	7946.71
532.452	8074.64
532.663	8193.13
532.875	8306.8
533.087	8407.11
533.298	8509.95
533.51	8615.31
533.721	8710.25
533.933	8782.49
534.144	8824.09
534.356	8824.82
534.567	8788.91
534.779	8722.29
534.99	8636.98
535.202	8537.31
535.413	8423.31
535.624	8300.58
535.836	8174.98
536.047	8060.89
536.259	7958.56
536.47	7885.51
536.681	7849.56
536.893	7843.13
537.104	7865.58
537.315	7914.15
537.526	7984.89
537.738	8078.29
537.949	8178.95
538.16	8282.53
538.371	8366.96
538.582	8427.51
538.794	8443.65
539.005	8422.75
539.216	8380.65
539.427	8338.78
539.638	8306.49
539.849	8279.84
540.06	8259.56
540.272	8244
540.483	8225.15
540.694	8221.4
540.905	8229.89
541.116	8271.67
541.327	8326.16
541.538	8372.91
541.749	8403.64
541.96	8413.65
542.17	8410.27
542.381	8411.33
542.592	8427.78
542.803	8451.89
543.014	8475.38
543.225	8492.89
543.436	8503.65
543.647	8509.04
543.857	8516.04
544.068	8508.16
544.279	8483.56
544.49	8431.35
544.701	8355.31
544.911	8248.35
545.122	8136.47
545.333	8021.69
545.543	7921.49
545.754	7834.13
545.965	7777.6
546.175	7755.65
546.386	7796.82
546.597	7890.11
546.807	8028.73
547.018	8180.53
547.229	8333.36
547.439	8454.51
547.65	8533.11
547.86	8565.84
548.071	8549.89
548.281	8494.58
548.492	8415.27
548.702	8296.15
548.913	8154.16
549.123	7989.89
549.333	7822.49
549.544	7655
549.754	7498.36
549.965	7369.22
550.175	7273.47
550.385	7238.98
550.596	7261.4
550.806	7316.69
551.016	7398.4
551.227	7471.65
551.437	7530.45
551.647	7571.31
551.857	7614.85
552.068	7667.98
552.278	7740.44
552.488	7821.4
552.698	7865.45
552.908	7849.55
553.119	7773.62
553.329	7646.76
553.539	7522.2
553.749	7437.36
553.959	7395.55
554.169	7395.73
554.379	7414.65
554.589	7434.82
554.799	7457.31
555.009	7464.6
555.219	7467.05
555.429	7481.76
555.639	7495.53
555.849	7498.82
556.059	7482.4
556.269	7458.24
556.479	7411.16
556.689	7357.78
556.899	7284.53
557.109	7180.02
557.319	7081.05
557.528	6988.51
557.738	6906
557.948	6848.27
558.158	6813.49
558.368	6797.73
558.577	6802.85
558.787	6832.29
558.997	6883.25
559.207	6980.2
559.416	7109.44
559.626	7259.82
559.836	7433.05
560.045	7599.55
560.255	7740.95
560.465	7856.51
560.674	7929.85
560.884	7948.55
561.093	7932.56
561.303	7886.44
561.512	7807.05
561.722	7726.49
561.932	7654.85
562.141	7582.44
562.351	7530.76
562.56	7515.87
562.769	7531.22
562.979	7580.78
563.188	7657.71
563.398	7737.82
563.607	7824.82
563.817	7905.73
564.026	7975.64
564.235	8023.64
564.445	8064.45
564.654	8092.95
564.863	8106.18
565.073	8124.73
565.282	8153.04
565.491	8207.22
565.7	8333.47
565.91	8522.98
566.119	8760.69
566.328	9034.42
566.537	9316.45
566.746	9611.69
566.956	9919.89
567.165	10283.87
567.374	10682.05
567.583	11103.69
567.792	11584.45
568.001	12111.95
568.21	12699.69
568.419	13372.47
568.628	14101.91
568.837	14823.62
569.046	15498.11
569.255	16133.13
569.464	16741.96
569.673	17377.44
569.882	18040.64
570.091	18682.36
570.3	19270.25
570.509	19754.85
570.718	20098.53
570.927	20297.49
571.135	20344.4
571.344	20256.64
571.553	20198.07
571.762	20200.33
571.971	20315.42
572.18	20581.11
572.388	20892.8
572.597	21247.62
572.806	21621.38
573.014	22009.09
573.223	22460.55
573.432	23040.35
573.641	23753.44
573.849	24394.25
574.058	24857.09
574.266	25035.55
574.475	24876.56
574.684	24608.22
574.892	24309.78
575.101	24063.78
575.309	24009.35
575.518	24021.85
575.726	24099.38
575.935	24360.42
576.143	24863.18
576.352	25687.07
576.56	26803.55
576.769	28021.04
576.977	29040.49
577.186	29712.04
577.394	29963.55
577.602	29794.18
577.811	29457.64
578.019	29114.84
578.228	28706.98
578.436	28270.47
578.644	27757.53
578.852	27092.25
579.061	26438.69
579.269	25913.75
579.477	25578.91
579.685	25758.04
579.894	26625.35
580.102	28067.36
580.31	29932.24
580.518	31905.62
580.726	33533.35
580.935	34685.82
581.143	35367.62
581.351	35607.18
581.559	35540.2
581.767	35209.87
581.975	34440.91
582.183	33050.76
582.391	31146.51
582.599	28895.49
582.807	26603.87
583.015	24690.13
583.223	23260.93
583.431	22426.85
583.639	22165.02
583.847	22381.8
584.055	23017
584.263	23854
584.471	24714.71
584.678	25408.82
584.886	25768.2
585.094	25775.36
585.302	25505.95
585.51	25137.55
585.718	24699.76
585.925	24326.2
586.133	24017.85
586.341	23664.78
586.549	23319.47
586.756	23009.64
586.964	22783.42
587.172	22703.33
587.379	22718.35
587.587	22715.47
587.795	22472.16
588.002	21990.15
588.21	21265.45
588.417	20355.6
588.625	19442.07
588.833	18575.13
589.04	17776
589.248	17038.55
589.455	16330.05
589.663	15680.25
589.87	15120.38
590.078	14733.36
590.285	14496.89
590.492	14321.2
590.7	14133.13
590.907	13972.6
591.115	13993.45
591.322	14333.49
591.529	14990.55
591.737	15883.09
591.944	16799.65
592.151	17627.62
592.359	18314.78
592.566	18820.15
592.773	19159.75
592.981	19404.53
593.188	19599.55
593.395	19688.35
593.602	19667.38
593.809	19516
594.017	19194.65
594.224	18843.6
594.431	18455.53
594.638	18048.65
594.845	17694.73
595.052	17382.49
595.259	17108.51
595.466	16817.04
595.673	16467.71
595.88	16000.51
596.088	15487.2
596.295	14992.85
596.502	14520.36
596.709	14158.22
596.915	13886.69
597.122	13780.11
597.329	13964.47
597.536	14410.87
597.743	14986.4
597.95	15520.36
598.157	15874.49
598.364	16037.2
598.571	16142.65
598.777	16311.36
598.984	16558.38
599.191	16858.75
599.398	17113.53
599.605	17194.22
599.811	17099.58
600.018	16862.38
600.225	16603.09
600.431	16418.58
600.638	16280.31
600.845	16158.36
601.052	16020.42
601.258	15881.47
601.465	15809
601.671	15837.73
601.878	15945.33
602.085	16089.07
602.291	16250.11
602.498	16345.15
602.704	16332.56
602.911	16239.36
603.117	16039.64
603.324	15753.71
603.53	15416.38
603.737	15051.89
603.943	14623.89
604.15	14186.91
604.356	13788.98
604.562	13396.47
604.769	13030.42
604.975	12746.69
605.181	12511.31
605.388	12344.84
605.594	12263.6
605.8	12239.8
606.007	12189.96
606.213	12077.22
606.419	11848.91
606.625	11474.25
606.832	11069.6
607.038	10709.62
607.244	10411.96
607.45	10208.07
607.656	10023.64
607.863	9770.67
608.069	9448.56
608.275	9167.67
608.481	8999.71
608.687	8945.84
608.893	8949.6
609.099	8934.82
609.305	8876.56
609.511	8773.51
609.717	8650.91
609.923	8579.2
610.129	8553.38
610.335	8556.69
610.541	8498.02
610.747	8287.13
610.953	7956.84
611.159	7641.56
611.365	7389.4
611.571	7230.58
611.776	7121.47
611.982	6996.45
612.188	6839.8
612.394	6695.18
612.6	6551.07
612.806	6424.6
613.011	6339.24
613.217	6269.18
613.423	6168.8
613.628	6053.62
613.834	5926.73
614.04	5825.02
614.246	5754.89
614.451	5657.04
614.657	5503.07
614.862	5311.55
615.068	5094.51
615.274	4892.35
615.479	4729.76
615.685	4594.62
615.89	4464.22
616.096	4329.62
616.301	4179.51
616.507	4018.47
616.712	3880.24
616.918	3774.22
617.123	3679.2
617.329	3589.69
617.534	3486.4
617.74	3374.93
617.945	3255.09
618.15	3131.18
618.356	2970.22
618.561	2693.29
618.766	2367.53
618.972	2039.05
619.177	1731.22
619.382	1454.18
619.588	1204.42
619.793	1066
619.998	899.11
620.203	695.25
620.408	438.34
620.614	166.7
