Data from EG2.5_CA1_MAYP1115451__0__15-43-31-640.txt Node

Date: Thu Jun 13 15:43:31 MDT 2024
User: Modes Lab
Spectrometer: MAYP111545
Trigger mode: 0
Integration Time (sec): 1.000000E-2
Scans to average: 5
Electric dark correction enabled: true
Nonlinearity correction enabled: false
Boxcar width: 5
XAxis mode: Wavelengths
Number of Pixels in Spectrum: 2068
>>>>>Begin Spectral Data<<<<<
165.214	166.33
165.449	168.77
165.683	180.09
165.918	191.72
166.152	200.19
166.387	206.89
166.621	140.68
166.856	181.91
167.09	203.04
167.325	229.42
167.559	248
167.794	264.84
168.028	272.82
168.263	275.04
168.497	274.29
168.732	274.98
168.966	275.8
169.2	277.22
169.435	278.75
169.669	280.35
169.903	282.02
170.138	283.97
170.372	284.48
170.606	285.97
170.841	287.08
171.075	288.2
171.309	289.04
171.544	289.66
171.778	291.18
172.012	292.02
172.246	293.29
172.48	293.97
172.715	294.58
172.949	296.78
173.183	297.78
173.417	298.4
173.651	298.98
173.885	299.78
174.119	300.88
174.354	300.28
174.588	301.38
174.822	301.66
175.056	301.51
175.29	301.75
175.524	300.8
175.758	301.88
175.992	302.64
176.226	303.29
176.46	304.64
176.694	305.95
176.928	307
177.162	306.95
177.396	306.97
177.63	308.66
177.864	309.11
178.097	310.97
178.331	310.48
178.565	310.62
178.799	311.31
179.033	311.31
179.267	310.31
179.5	310.55
179.734	310.68
179.968	312.28
180.202	313.26
180.436	314.55
180.669	315
180.903	316.28
181.137	316.57
181.371	317.53
181.604	317.71
181.838	319.89
182.072	321.31
182.305	323.31
182.539	323.62
182.772	324.22
183.006	324.26
183.24	324.6
183.473	328.78
183.707	330.95
183.94	331.53
184.174	331.49
184.408	332.28
184.641	332.33
184.875	332.78
185.108	334.84
185.342	335.49
185.575	337.15
185.808	338.58
186.042	336.04
186.275	335.97
186.509	337.93
186.742	340.64
186.976	342.09
187.209	343.4
187.442	344.02
187.676	343.8
187.909	344.73
188.142	344.57
188.376	345.31
188.609	346.89
188.842	347.98
189.076	349.78
189.309	350
189.542	350.33
189.775	351.86
190.009	353.02
190.242	355.17
190.475	356.51
190.708	359.37
190.941	361.22
191.174	362
191.408	363.73
191.641	363.22
191.874	364.84
192.107	366.91
192.34	368.31
192.573	370.77
192.806	371.77
193.039	372.73
193.272	373.4
193.505	373.95
193.738	376.13
193.971	377.55
194.204	379.17
194.437	379.69
194.67	380.69
194.903	382.28
195.136	383.31
195.369	384.86
195.602	386.44
195.835	388.24
196.068	389.78
196.301	390.97
196.533	392.31
196.766	395.17
196.999	398.11
197.232	399.15
197.465	399.31
197.698	400.66
197.93	402.22
198.163	403.09
198.396	403.66
198.629	405.89
198.861	406.46
199.094	407.26
199.327	408.55
199.559	408.93
199.792	410.46
200.025	413
200.257	413.93
200.49	415.4
200.723	417.37
200.955	420.02
201.188	421.29
201.42	424.02
201.653	427
201.886	428.04
202.118	431.22
202.351	432.86
202.583	434.77
202.816	435.89
203.048	438.2
203.281	439.06
203.513	440.31
203.745	442.13
203.978	442.55
204.21	442.49
204.443	444.33
204.675	444.73
204.907	446.35
205.14	447.18
205.372	449.08
205.605	449.75
205.837	452.53
206.069	453.06
206.302	452.98
206.534	454.35
206.766	455.64
206.998	455.6
207.231	457.71
207.463	459.6
207.695	462.2
207.927	464.22
208.159	466.18
208.392	465.91
208.624	467.69
208.856	469.98
209.088	471.88
209.32	473.46
209.552	476.08
209.784	477.24
210.017	477.89
210.249	477.97
210.481	478.44
210.713	479.55
210.945	481.35
211.177	483.66
211.409	484.64
211.641	485.62
211.873	486.28
212.105	487.35
212.337	487.69
212.569	489.24
212.801	491.06
213.033	493.35
213.264	493.86
213.496	496.58
213.728	497.08
213.96	498.89
214.192	500.24
214.424	503.42
214.656	503.75
214.887	505.44
215.119	507.08
215.351	507.17
215.583	507.02
215.815	507.84
216.046	509.18
216.278	509.58
216.51	510.13
216.741	510.75
216.973	511.37
217.205	513.22
217.436	514.77
217.668	515.97
217.9	517.68
218.131	518.95
218.363	520.69
218.595	520.98
218.826	522.11
219.058	523.18
219.289	525.29
219.521	525.13
219.752	525.86
219.984	526.26
220.215	525.08
220.447	526.04
220.678	527.22
220.91	527.15
221.141	526.93
221.373	527.15
221.604	527.66
221.836	528.51
222.067	530.89
222.298	530.86
222.53	531.11
222.761	532.38
222.993	532.62
223.224	533.28
223.455	534.4
223.686	536.28
223.918	537.02
224.149	537.69
224.38	536.71
224.612	535.55
224.843	536.15
225.074	536.44
225.305	536.78
225.536	537.6
225.768	537.66
225.999	537.86
226.23	538.11
226.461	539.09
226.692	538.78
226.923	539.13
227.155	541.75
227.386	543.46
227.617	543.77
227.848	544.93
228.079	546.64
228.31	546.44
228.541	546.37
228.772	546.04
229.003	546.68
229.234	546.64
229.465	547.51
229.696	545.98
229.927	544.77
230.158	544.66
230.389	543.48
230.62	542.29
230.85	543.66
231.081	542.55
231.312	542
231.543	541.57
231.774	542.55
232.005	543.22
232.236	544.24
232.466	543.68
232.697	544.28
232.928	545.11
233.159	545.26
233.389	544.88
233.62	546.08
233.851	545.02
234.082	544.15
234.312	543.89
234.543	544.11
234.774	542.95
235.004	544.04
235.235	543.82
235.466	544.77
235.696	545.02
235.927	544.42
236.157	545.66
236.388	546.51
236.618	547.89
236.849	547.68
237.08	548.91
237.31	550.28
237.541	551.33
237.771	551.33
238.002	552.06
238.232	551.68
238.463	553.58
238.693	554.8
238.923	557.06
239.154	558.88
239.384	562.11
239.615	563.57
239.845	566.82
240.075	569.51
240.306	573.51
240.536	576.15
240.766	580.22
240.997	584.77
241.227	590.49
241.457	596.24
241.687	603.8
241.918	612.64
242.148	622.48
242.378	632.62
242.608	645.75
242.839	661.17
243.069	678.49
243.299	699.15
243.529	725.57
243.759	749.37
243.989	779.73
244.22	812.77
244.45	848.78
244.68	889.44
244.91	934.26
245.14	982.6
245.37	1037.28
245.6	1095.64
245.83	1158.82
246.06	1224.29
246.29	1298.35
246.52	1375.64
246.75	1456.26
246.98	1543.57
247.21	1633.22
247.44	1728.08
247.67	1826.31
247.9	1925.75
248.13	2032.62
248.359	2141.89
248.589	2255.2
248.819	2369.88
249.049	2486.04
249.279	2606.68
249.509	2726.08
249.738	2846.97
249.968	2968.64
250.198	3090.97
250.428	3216.86
250.657	3339.75
250.887	3459.11
251.117	3577.18
251.347	3696.09
251.576	3811.08
251.806	3924.98
252.036	4034.53
252.265	4144.22
252.495	4249.4
252.725	4355.28
252.954	4454.78
253.184	4553.71
253.413	4653.64
253.643	4747.6
253.873	4834.69
254.102	4926.13
254.332	5009.71
254.561	5095.78
254.791	5177
255.02	5256.28
255.25	5330.49
255.479	5401.42
255.708	5467.02
255.938	5528.58
256.167	5586.82
256.397	5646.6
256.626	5699.18
256.856	5749.93
257.085	5800.11
257.314	5844.68
257.544	5887.64
257.773	5925.48
258.002	5968.06
258.232	6006.51
258.461	6043.22
258.69	6081.42
258.919	6118.37
259.149	6154.73
259.378	6187.68
259.607	6216.64
259.836	6245.46
260.065	6277.86
260.295	6312.2
260.524	6339.18
260.753	6370.82
260.982	6395.51
261.211	6419.64
261.44	6444.98
261.669	6464.22
261.899	6489.44
262.128	6509.48
262.357	6535.73
262.586	6559.46
262.815	6578.48
263.044	6596.71
263.273	6617.33
263.502	6639.95
263.731	6660.31
263.96	6673.95
264.189	6694.33
264.418	6709.35
264.646	6730.13
264.875	6746.31
265.104	6758.33
265.333	6775.55
265.562	6792.09
265.791	6804.15
266.02	6820.24
266.249	6837.53
266.477	6855.57
266.706	6871.35
266.935	6888.71
267.164	6907.31
267.393	6926.06
267.621	6945.22
267.85	6962.78
268.079	6986.37
268.307	7009.58
268.536	7035.48
268.765	7054.95
268.993	7079.24
269.222	7101.97
269.451	7126.91
269.679	7150.15
269.908	7175.95
270.137	7202.95
270.365	7231.28
270.594	7256.22
270.822	7280.58
271.051	7304.88
271.279	7334.97
271.508	7366.4
271.736	7397.08
271.965	7430.89
272.193	7460.62
272.422	7490.31
272.65	7518.2
272.879	7551.24
273.107	7580.53
273.336	7608.04
273.564	7639.29
273.792	7666.84
274.021	7693.15
274.249	7722.66
274.477	7749.33
274.706	7778.6
274.934	7807.77
275.162	7838.02
275.391	7868.66
275.619	7901.02
275.847	7939.28
276.075	7971.26
276.304	8007.26
276.532	8042.11
276.76	8079.2
276.988	8112.64
277.216	8150.35
277.445	8188.86
277.673	8225.02
277.901	8253.78
278.129	8284.46
278.357	8315.93
278.585	8354.15
278.813	8389.2
279.041	8425.97
279.269	8461.6
279.497	8502.33
279.725	8536.06
279.954	8569.15
280.182	8599.08
280.41	8638.84
280.637	8676.91
280.865	8714.37
281.093	8742.89
281.321	8779.77
281.549	8807.64
281.777	8839.86
282.005	8870.97
282.233	8905.24
282.461	8937.48
282.689	8975.51
282.916	9006.4
283.144	9037.93
283.372	9070.15
283.6	9103.75
283.828	9130.8
284.055	9167.8
284.283	9197.17
284.511	9232.42
284.739	9266.15
284.966	9300.73
285.194	9332.38
285.422	9363.29
285.649	9397.26
285.877	9428.77
286.105	9461.4
286.332	9496.73
286.56	9528.13
286.788	9563.95
287.015	9589.49
287.243	9616
287.47	9645.24
287.698	9680.78
287.925	9715.93
288.153	9749.4
288.381	9780.2
288.608	9806.17
288.836	9834.2
289.063	9864.78
289.29	9895.11
289.518	9928.71
289.745	9961.66
289.973	9989.2
290.2	10021.98
290.428	10053.86
290.655	10084.33
290.882	10117.08
291.11	10154.18
291.337	10181.64
291.564	10216.57
291.792	10248.42
292.019	10274.69
292.246	10302.33
292.473	10327.84
292.701	10352.57
292.928	10376.64
293.155	10401.13
293.382	10425.64
293.61	10449.88
293.837	10477.51
294.064	10500.75
294.291	10518.97
294.518	10544.08
294.745	10567.46
294.972	10594.53
295.2	10618.48
295.427	10636.98
295.654	10660.6
295.881	10686.77
296.108	10710.62
296.335	10733.33
296.562	10754.62
296.789	10778.42
297.016	10799.62
297.243	10821.71
297.47	10845.78
297.697	10862.78
297.924	10886.91
298.151	10906.57
298.378	10917.2
298.604	10931.86
298.831	10947.8
299.058	10955.8
299.285	10970.38
299.512	10985.4
299.739	10998.75
299.966	11006.55
300.192	11022.15
300.419	11031.42
300.646	11040.09
300.873	11048.62
301.099	11063.24
301.326	11076.38
301.553	11092.57
301.78	11099.04
302.006	11104.68
302.233	11110.78
302.46	11118.91
302.686	11126.55
302.913	11139.11
303.14	11144.73
303.366	11152.69
303.593	11150.46
303.819	11150.42
304.046	11148.98
304.272	11158.86
304.499	11163.93
304.725	11167.44
304.952	11168.51
305.179	11171.88
305.405	11168.62
305.631	11171.26
305.858	11173.82
306.084	11177.86
306.311	11183.29
306.537	11186.24
306.764	11179.17
306.99	11181.11
307.216	11185.57
307.443	11193.8
307.669	11189.95
307.895	11194.62
308.122	11195.77
308.348	11196.82
308.574	11194.42
308.801	11187.22
309.027	11188.91
309.253	11192.68
309.479	11186.48
309.706	11173.84
309.932	11162.84
310.158	11154.29
310.384	11143.98
310.61	11133.64
310.837	11128.26
311.063	11124.62
311.289	11123.04
311.515	11111.08
311.741	11097.04
311.967	11090.22
312.193	11088.88
312.419	11083.15
312.645	11080.69
312.871	11074.66
313.097	11072
313.323	11064.75
313.549	11058.08
313.775	11047.77
314.001	11044.02
314.227	11044.13
314.453	11038.37
314.679	11031.6
314.905	11020.91
315.131	11006.35
315.357	10994.08
315.583	10980.66
315.809	10962.78
316.034	10948.29
316.26	10936.98
316.486	10926.06
316.712	10913.38
316.938	10897.31
317.163	10883.97
317.389	10871.97
317.615	10860.46
317.841	10849.09
318.066	10840.33
318.292	10833.57
318.518	10827.48
318.743	10816.93
318.969	10807.8
319.195	10794.31
319.42	10784.73
319.646	10771.82
319.872	10762.49
320.097	10755.82
320.323	10746.82
320.548	10732.15
320.774	10722.89
320.999	10703.49
321.225	10699.8
321.45	10689
321.676	10685.15
321.901	10675.95
322.127	10670.22
322.352	10665.26
322.578	10654.38
322.803	10646.04
323.029	10640.71
323.254	10630.68
323.479	10627.02
323.705	10611.48
323.93	10602.11
324.155	10591.09
324.381	10585.73
324.606	10572.84
324.831	10559.49
325.057	10544.58
325.282	10535.49
325.507	10524.48
325.732	10514.68
325.958	10507.55
326.183	10494.49
326.408	10484.4
326.633	10468.02
326.858	10455.93
327.084	10447.26
327.309	10440.15
327.534	10437.89
327.759	10428.31
327.984	10419.89
328.209	10416.02
328.434	10404.95
328.659	10402.55
328.884	10396.55
329.109	10391.84
329.334	10387.57
329.559	10381.13
329.784	10372.4
330.009	10361.22
330.234	10355.57
330.459	10352.33
330.684	10335.97
330.909	10322.24
331.134	10313.75
331.359	10301.91
331.584	10290.8
331.809	10275.06
332.034	10264.04
332.259	10250.97
332.483	10242.91
332.708	10228.04
332.933	10214.86
333.158	10216
333.383	10214.66
333.607	10207.09
333.832	10198.46
334.057	10197.02
334.282	10195.89
334.506	10192.51
334.731	10193.06
334.956	10188.17
335.18	10188.31
335.405	10179.31
335.63	10164.82
335.854	10154.98
336.079	10144.53
336.303	10137.29
336.528	10122.22
336.753	10112.66
336.977	10099.44
337.202	10087.57
337.426	10077.93
337.651	10068.24
337.875	10058.77
338.1	10053.17
338.324	10044.89
338.549	10042.53
338.773	10033.37
338.997	10030.06
339.222	10026.77
339.446	10020.46
339.671	10014.55
339.895	10007.35
340.119	10001.71
340.344	10001.77
340.568	9996.18
340.792	9991.02
341.017	9979.58
341.241	9973.28
341.465	9961
341.689	9949.31
341.914	9943.17
342.138	9929.37
342.362	9918.31
342.586	9905.02
342.811	9891.78
343.035	9879.22
343.259	9861.97
343.483	9851.44
343.707	9836.98
343.931	9834.24
344.155	9821.26
344.38	9812.37
344.604	9806.88
344.828	9803.6
345.052	9797.84
345.276	9792.46
345.5	9785.91
345.724	9782.78
345.948	9775.75
346.172	9773.97
346.396	9766.93
346.62	9766.71
346.844	9758.11
347.068	9753.02
347.292	9743.58
347.515	9730.02
347.739	9714.78
347.963	9704.35
348.187	9696
348.411	9683.29
348.635	9667.73
348.859	9652.37
349.082	9632.31
349.306	9622.44
349.53	9609.82
349.754	9596.64
349.977	9587.29
350.201	9580.53
350.425	9568.88
350.649	9558.95
350.872	9551.29
351.096	9540.82
351.32	9530.04
351.543	9530.28
351.767	9526.77
351.99	9518.38
352.214	9510.6
352.438	9501.82
352.661	9491.11
352.885	9481.78
353.108	9466.26
353.332	9456.4
353.555	9450.17
353.779	9445.84
354.002	9430.53
354.226	9417.86
354.449	9408.15
354.673	9400.97
354.896	9390.82
355.12	9379.88
355.343	9368.89
355.566	9366.89
355.79	9358.58
356.013	9348.18
356.237	9333.71
356.46	9325.08
356.683	9310.77
356.907	9298.49
357.13	9282.58
357.353	9272.29
357.576	9265.69
357.8	9258.49
358.023	9249.58
358.246	9239.44
358.469	9232.06
358.693	9217.04
358.916	9206.04
359.139	9196.98
359.362	9183.58
359.585	9176.82
359.808	9172.42
360.031	9163.88
360.255	9155.71
360.478	9141.82
360.701	9135.18
360.924	9130.15
361.147	9134.64
361.37	9130.71
361.593	9127.29
361.816	9124.31
362.039	9122.04
362.262	9113.57
362.485	9107.8
362.708	9101.29
362.931	9101.73
363.154	9100.49
363.377	9092.04
363.599	9083.38
363.822	9079.48
364.045	9073.44
364.268	9074.93
364.491	9072.06
364.714	9072.75
364.936	9078.31
365.159	9088.33
365.382	9094.62
365.605	9098.84
365.828	9111.04
366.05	9124.58
366.273	9133.84
366.496	9146.53
366.718	9158.37
366.941	9164.35
367.164	9170.77
367.386	9170.58
367.609	9169.71
367.832	9168.02
368.054	9163.84
368.277	9159.62
368.5	9147.89
368.722	9132.51
368.945	9116.02
369.167	9097.28
369.39	9083.62
369.612	9068.55
369.835	9054.18
370.057	9042.09
370.28	9031.91
370.502	9021.17
370.725	9014.98
370.947	9015.06
371.169	9016.15
371.392	9016.18
371.614	9015.88
371.837	9012.13
372.059	9014.88
372.281	9018.18
372.504	9021.13
372.726	9025.11
372.948	9030.48
373.171	9032.98
373.393	9039.55
373.615	9050.68
373.837	9070.75
374.06	9093.78
374.282	9123.18
374.504	9146.28
374.726	9170.89
374.948	9184
375.17	9202.84
375.393	9220.68
375.615	9242.6
375.837	9257.11
376.059	9276.84
376.281	9292.22
376.503	9309.75
376.725	9327.53
376.947	9347.89
377.169	9368.58
377.391	9405.82
377.613	9438.57
377.835	9481.8
378.057	9521.08
378.279	9563.69
378.501	9600.28
378.723	9624.08
378.945	9641.06
379.167	9655.15
379.389	9673.08
379.611	9687.91
379.833	9697.57
380.054	9700.44
380.276	9691.62
380.498	9676.53
380.72	9671.49
380.942	9666.91
381.163	9685.95
381.385	9713.88
381.607	9740.89
381.829	9762.75
382.05	9784.44
382.272	9796.18
382.494	9812.33
382.716	9832.35
382.937	9862.84
383.159	9879.68
383.381	9900.11
383.602	9905.8
383.824	9909.44
384.045	9913.46
384.267	9917.04
384.488	9923.46
384.71	9942.42
384.932	9966.78
385.153	9987.93
385.375	10006.02
385.596	10036.57
385.818	10072.46
386.039	10108.62
386.261	10148.17
386.482	10197.09
386.703	10248.29
386.925	10301.4
387.146	10352.24
387.368	10399.46
387.589	10451.37
387.81	10498.77
388.032	10518.71
388.253	10523.37
388.474	10529.29
388.696	10519.71
388.917	10511.28
389.138	10502.82
389.359	10495.11
389.581	10487.33
389.802	10482.55
390.023	10482.22
390.244	10483.89
390.465	10505.33
390.687	10547.69
390.908	10595.97
391.129	10672.02
391.35	10749.53
391.571	10835.37
391.792	10927.18
392.013	11013.49
392.234	11081.15
392.455	11130.49
392.677	11174.91
392.898	11216.57
393.119	11246.35
393.34	11272.73
393.561	11287.29
393.782	11283.46
394.003	11273.84
394.223	11254.26
394.444	11226.88
394.665	11215.26
394.886	11219.89
395.107	11235.42
395.328	11257.37
395.549	11283.86
395.77	11311.37
395.99	11338.69
396.211	11382.37
396.432	11433.93
396.653	11497.18
396.874	11585.48
397.094	11683.4
397.315	11783.04
397.536	11876.37
397.757	11950.86
397.977	12007.82
398.198	12055.31
398.419	12090.49
398.639	12111.75
398.86	12116.46
399.081	12105.15
399.301	12076.31
399.522	12033.91
399.742	11993.62
399.963	11956.42
400.184	11930.42
400.404	11908.86
400.625	11894.02
400.845	11880.48
401.066	11877.73
401.286	11876.66
401.507	11879.64
401.727	11888.31
401.948	11904.31
402.168	11915.62
402.388	11926.11
402.609	11939.95
402.829	11967.09
403.05	12000.62
403.27	12043.04
403.49	12085.8
403.711	12141.69
403.931	12204.48
404.151	12277.68
404.372	12342.48
404.592	12405.24
404.812	12456.06
405.032	12493.6
405.253	12509.17
405.473	12508.37
405.693	12500.78
405.913	12489.11
406.133	12457.08
406.353	12422.51
406.574	12370.51
406.794	12327.15
407.014	12303.48
407.234	12295.28
407.454	12307.33
407.674	12332.62
407.894	12365.49
408.114	12393.44
408.334	12423.02
408.554	12470.17
408.774	12518.71
408.994	12573.08
409.214	12611.84
409.434	12629.98
409.654	12631.77
409.874	12630.06
410.094	12636.46
410.314	12644.18
410.534	12659.77
410.754	12680.78
410.974	12700.66
411.193	12722.57
411.413	12757.11
411.633	12813.91
411.853	12872.8
412.073	12938.69
412.292	12999.22
412.512	13050.53
412.732	13096.95
412.952	13132.44
413.171	13156.51
413.391	13173.08
413.611	13189.71
413.831	13188.71
414.05	13186.17
414.27	13172.86
414.489	13164.93
414.709	13159.09
414.929	13155.91
415.148	13162.06
415.368	13178.97
415.587	13196.2
415.807	13214.62
416.026	13227.68
416.246	13242.75
416.465	13255.62
416.685	13270.31
416.904	13287.31
417.124	13302.2
417.343	13317.73
417.563	13338.68
417.782	13362.55
418.002	13388.37
418.221	13419.82
418.44	13454.4
418.66	13496.6
418.879	13529.44
419.098	13580.06
419.318	13641.77
419.537	13714.11
419.756	13799.93
419.976	13888.75
420.195	13993
420.414	14110.31
420.633	14229.44
420.853	14349.84
421.072	14451.89
421.291	14543.22
421.51	14620.17
421.729	14680.42
421.948	14731.38
422.168	14782.24
422.387	14816.38
422.606	14825.66
422.825	14812.91
423.044	14781.04
423.263	14735.98
423.482	14704.44
423.701	14688.31
423.92	14677.35
424.139	14673.44
424.358	14658.33
424.577	14615.97
424.796	14571.86
425.015	14528.71
425.234	14495.8
425.453	14475.69
425.672	14474.88
425.891	14487.15
426.11	14523.98
426.328	14576.95
426.547	14627.84
426.766	14673.08
426.985	14717.49
427.204	14751.51
427.422	14797.66
427.641	14850.49
427.86	14908.69
428.079	14973.75
428.297	15047.98
428.516	15116.38
428.735	15188.13
428.954	15264.77
429.172	15355.91
429.391	15453.51
429.61	15560.13
429.828	15650.71
430.047	15715.89
430.265	15754.6
430.484	15761.13
430.703	15720.51
430.921	15647.88
431.14	15556
431.358	15458.53
431.577	15364.11
431.795	15289.53
432.014	15230.48
432.232	15215.73
432.451	15261.75
432.669	15364.75
432.887	15489.77
433.106	15604.11
433.324	15690.69
433.543	15745.62
433.761	15791.58
433.979	15855.58
434.198	15906
434.416	15948.98
434.634	15955.06
434.853	15918.75
435.071	15854.22
435.289	15795.08
435.507	15777.33
435.726	15797.55
435.944	15837.02
436.162	15873
436.38	15884.66
436.598	15901.98
436.817	15923.69
437.035	15960.31
437.253	16002.84
437.471	16043.57
437.689	16075.22
437.907	16098.17
438.125	16118.95
438.343	16144.82
438.561	16174.8
438.78	16208.55
438.998	16231.22
439.216	16257.91
439.434	16272.35
439.652	16310.42
439.869	16379.33
440.087	16478.04
440.305	16604.8
440.523	16737.82
440.741	16866.51
440.959	16975.17
441.177	17075.93
441.395	17168.29
441.613	17256.09
441.831	17338.82
442.048	17411.04
442.266	17448.28
442.484	17465.42
442.702	17458.55
442.919	17439.82
443.137	17428.73
443.355	17445.29
443.573	17470.6
443.79	17513.82
444.008	17554.88
444.226	17586.88
444.443	17602.55
444.661	17613.31
444.879	17614.18
445.096	17619.68
445.314	17649.35
445.532	17672.28
445.749	17694.86
445.967	17706.77
446.184	17708.53
446.402	17707.66
446.619	17718.38
446.837	17725.2
447.054	17730.57
447.272	17734.86
447.489	17735.33
447.707	17727.91
447.924	17733.4
448.141	17738.28
448.359	17756.13
448.576	17783.97
448.794	17811.44
449.011	17843.11
449.228	17866.11
449.446	17889.6
449.663	17911.4
449.88	17927.51
450.098	17927.84
450.315	17924.84
450.532	17929.55
450.749	17933.93
450.967	17936.29
451.184	17939.09
451.401	17935.22
451.618	17941.82
451.835	17944.17
452.052	17945.49
452.27	17946.93
452.487	17951.53
452.704	17958.93
452.921	17962.75
453.138	17963.17
453.355	17957.68
453.572	17965.48
453.789	17983.97
454.006	18015.88
454.223	18063.71
454.44	18107.18
454.657	18153.33
454.874	18196.55
455.091	18227.17
455.308	18248.28
455.525	18278.29
455.742	18323.91
455.959	18366.22
456.176	18409.33
456.393	18448.71
456.609	18486.86
456.826	18540.11
457.043	18599.69
457.26	18674.13
457.477	18760.98
457.693	18850.88
457.91	18923.2
458.127	18993.84
458.344	19048.93
458.56	19092.51
458.777	19118.33
458.994	19133.8
459.21	19125.58
459.427	19097.64
459.644	19068.08
459.86	19036.48
460.077	19008.53
460.294	18990
460.51	18951.6
460.727	18905.64
460.943	18848.78
461.16	18798.77
461.376	18756.97
461.593	18736.02
461.809	18740.4
462.026	18753.22
462.242	18765.82
462.459	18798.57
462.675	18842.73
462.892	18901.51
463.108	18976
463.324	19077.02
463.541	19175.35
463.757	19280.53
463.974	19380.64
464.19	19464.97
464.406	19543.42
464.623	19621.28
464.839	19673.46
465.055	19704.95
465.271	19716.24
465.488	19706.11
465.704	19675.06
465.92	19648.15
466.136	19604.33
466.353	19566.28
466.569	19537.15
466.785	19505.09
467.001	19471.97
467.217	19442.26
467.433	19422.44
467.649	19410.11
467.865	19409.97
468.082	19413.48
468.298	19408.98
468.514	19413.97
468.73	19404.53
468.946	19385.88
469.162	19373.09
469.378	19358.37
469.594	19341.98
469.81	19336.18
470.026	19345.08
470.242	19359.48
470.457	19385.06
470.673	19430.75
470.889	19475.02
471.105	19533.69
471.321	19599.82
471.537	19665.98
471.753	19753.17
471.968	19849.29
472.184	19941.95
472.4	20037.55
472.616	20127.29
472.832	20210.95
473.047	20283.93
473.263	20356.22
473.479	20424.02
473.694	20504.02
473.91	20583.49
474.126	20663.95
474.341	20732.18
474.557	20789.89
474.773	20835.11
474.988	20886.48
475.204	20939.93
475.42	20998
475.635	21049.86
475.851	21098.46
476.066	21137.98
476.282	21161.71
476.497	21179.11
476.713	21216.88
476.928	21271.69
477.144	21342.53
477.359	21403.51
477.575	21455.84
477.79	21494.66
478.005	21551.4
478.221	21602.73
478.436	21662.62
478.651	21741.57
478.867	21810.44
479.082	21870.57
479.297	21920.73
479.513	21953.84
479.728	21992.95
479.943	22039.26
480.159	22103.28
480.374	22159.44
480.589	22224.88
480.804	22276.15
481.019	22311.49
481.235	22338.44
481.45	22351.75
481.665	22362.17
481.88	22379.37
482.095	22414.04
482.31	22450.04
482.525	22486.29
482.741	22523.09
482.956	22565.4
483.171	22620.51
483.386	22686.4
483.601	22773.46
483.816	22867.73
484.031	23001.28
484.246	23363.11
484.461	24029.78
484.676	24924.11
484.891	25935.66
485.105	26815.28
485.32	27403.64
485.535	27753.68
485.75	27910.42
485.965	27955.55
486.18	27974.11
486.395	27948.95
486.609	27681.24
486.824	27077.88
487.039	26236.51
487.254	25255.95
487.469	24403.62
487.683	23829.38
487.898	23481.02
488.113	23327.69
488.327	23277.22
488.542	23246.2
488.757	23222.75
488.972	23206.97
489.186	23206.97
489.401	23217.17
489.615	23237.88
489.83	23256.37
490.045	23272.2
490.259	23283.49
490.474	23287.09
490.688	23286.24
490.903	23279.04
491.117	23281.02
491.332	23296.88
491.546	23315.38
491.761	23325.31
491.975	23340.53
492.19	23355.22
492.404	23373.84
492.618	23391.97
492.833	23401.73
493.047	23413.2
493.262	23430.44
493.476	23437.84
493.69	23434.04
493.905	23423.6
494.119	23419.28
494.333	23410.42
494.547	23407.29
494.762	23415.91
494.976	23440.57
495.19	23490.11
495.404	23539.93
495.619	23583.95
495.833	23610.02
496.047	23627.04
496.261	23630.11
496.475	23634.97
496.689	23637.4
496.903	23632.82
497.117	23620.64
497.332	23592.06
497.546	23555.64
497.76	23517.93
497.974	23493.57
498.188	23482.57
498.402	23478.53
498.616	23494.22
498.83	23500.55
499.044	23503.06
499.258	23495.49
499.472	23487.62
499.685	23488.58
499.899	23488.13
500.113	23488.62
500.327	23492.35
500.541	23500.86
500.755	23517.24
500.969	23529.98
501.183	23549.95
501.396	23562.09
501.61	23591.98
501.824	23620.89
502.038	23645.77
502.251	23658.02
502.465	23665.4
502.679	23659.77
502.892	23650.69
503.106	23624.13
503.32	23604.49
503.533	23584.46
503.747	23583.28
503.961	23584.68
504.174	23583.44
504.388	23592.08
504.602	23592.8
504.815	23602.38
505.029	23631.69
505.242	23658.8
505.456	23706.29
505.669	23741.49
505.883	23774.35
506.096	23791.6
506.31	23803.18
506.523	23829.22
506.736	23844.75
506.95	23880.28
507.163	23911.42
507.377	23940.62
507.59	23976.11
507.803	24010.49
508.017	24050.55
508.23	24099.66
508.443	24164.09
508.657	24229.84
508.87	24283.84
509.083	24349.04
509.296	24403.6
509.51	24461.37
509.723	24518.69
509.936	24583.38
510.149	24647.2
510.363	24719.06
510.576	24790
510.789	24854.88
511.002	24918.8
511.215	24989.68
511.428	25050.26
511.641	25121.18
511.854	25186.53
512.067	25257.58
512.28	25328.04
512.493	25391.22
512.707	25458.4
512.92	25529.46
513.132	25609.29
513.345	25694.77
513.558	25769.97
513.771	25847.13
513.984	25926.89
514.197	26002.73
514.41	26070.28
514.623	26148.84
514.836	26228.88
515.049	26313.35
515.262	26395.95
515.474	26477.71
515.687	26547.26
515.9	26626.98
516.113	26703.13
516.325	26769.44
516.538	26835.18
516.751	26905.89
516.964	26961.09
517.176	27019.18
517.389	27076.33
517.602	27128.28
517.814	27184.93
518.027	27255.22
518.24	27322.2
518.452	27386.37
518.665	27454.66
518.877	27519.18
519.09	27567.15
519.303	27611.77
519.515	27663.62
519.728	27704.71
519.94	27752.71
520.153	27801.69
520.365	27837.58
520.578	27864.33
520.79	27898.42
521.002	27926.06
521.215	27962.26
521.427	28001.77
521.64	28055.69
521.852	28098.26
522.064	28151.82
522.277	28192.18
522.489	28217.93
522.701	28252.09
522.914	28300.22
523.126	28344.13
523.338	28388.88
523.551	28425.44
523.763	28467.95
523.975	28503.91
524.187	28534.55
524.399	28559.84
524.612	28596.93
524.824	28636
525.036	28675.33
525.248	28708.89
525.46	28743.66
525.672	28775.09
525.884	28816.09
526.096	28858.49
526.308	28885.62
526.521	28920.4
526.733	28955.49
526.945	28986.86
527.157	29020.78
527.369	29049.64
527.581	29087.11
527.793	29123
528.004	29154.95
528.216	29188.09
528.428	29214.71
528.64	29238.97
528.852	29266.89
529.064	29285.73
529.276	29301.77
529.488	29314.78
529.699	29322.71
529.911	29316.2
530.123	29316.44
530.335	29323.64
530.547	29337.31
530.758	29346.71
530.97	29368.89
531.182	29386.66
531.393	29418.89
531.605	29460.8
531.817	29512.82
532.029	29577.42
532.24	29643.49
532.452	29706.71
532.663	29773.24
532.875	29822.35
533.087	29877.8
533.298	29924.91
533.51	29966.04
533.721	29999.08
533.933	30033.18
534.144	30050.44
534.356	30051.29
534.567	30050.31
534.779	30042.17
534.99	30032.69
535.202	30019.66
535.413	30012.44
535.624	30004.38
535.836	30004.75
536.047	30003.37
536.259	29992.22
536.47	29998.33
536.681	30017.91
536.893	30043.24
537.104	30068.88
537.315	30104.44
537.526	30144.44
537.738	30179.77
537.949	30219.44
538.16	30260.66
538.371	30298.66
538.582	30332.26
538.794	30347.13
539.005	30352.95
539.216	30369.06
539.427	30376.86
539.638	30382.38
539.849	30399.4
540.06	30416.09
540.272	30434.75
540.483	30456.48
540.694	30475.98
540.905	30497.17
541.116	30528.78
541.327	30563.55
541.538	30578.78
541.749	30602
541.96	30614.11
542.17	30626.89
542.381	30642.46
542.592	30648.75
542.803	30652.78
543.014	30663.86
543.225	30666.49
543.436	30674.13
543.647	30686.13
543.857	30701.38
544.068	30720.49
544.279	30723
544.49	30719.29
544.701	30710.73
544.911	30705.68
545.122	30698.86
545.333	30687.11
545.543	30683.53
545.754	30684.48
545.965	30684.35
546.175	30684.51
546.386	30695.24
546.597	30737.98
546.807	30787.2
547.018	30828.29
547.229	30873.75
547.439	30906.75
547.65	30929.28
547.86	30943.04
548.071	30955.09
548.281	30953.49
548.492	30961.97
548.702	30956.28
548.913	30943.71
549.123	30914.53
549.333	30896.84
549.544	30876.24
549.754	30858.18
549.965	30859.06
550.175	30864.31
550.385	30868.04
550.596	30899.53
550.806	30921.24
551.016	30954.8
551.227	30979.82
551.437	31007.09
551.647	31026.02
551.857	31043.78
552.068	31078.62
552.278	31100.78
552.488	31127.55
552.698	31143.93
552.908	31145.4
553.119	31132.44
553.329	31110.98
553.539	31089.46
553.749	31083.31
553.959	31083.82
554.169	31101
554.379	31108.68
554.589	31125.64
554.799	31146.73
555.009	31168.42
555.219	31178.82
555.429	31206.35
555.639	31222
555.849	31233.62
556.059	31238.31
556.269	31239.89
556.479	31236.62
556.689	31245.06
556.899	31239.82
557.109	31217.15
557.319	31194.71
557.528	31177.51
557.738	31156.09
557.948	31145.57
558.158	31149.15
558.368	31156.29
558.577	31162.88
558.787	31170.62
558.997	31179.35
559.207	31199.15
559.416	31249.44
559.626	31293.95
559.836	31341.64
560.045	31396.57
560.255	31446.26
560.465	31476.37
560.674	31501.93
560.884	31529.22
561.093	31543.22
561.303	31552.58
561.512	31551.33
561.722	31539.51
561.932	31537.13
562.141	31538.48
562.351	31530.44
562.56	31535.28
562.769	31552.15
562.979	31572.09
563.188	31594.68
563.398	31616.84
563.607	31637.06
563.817	31672.82
564.026	31698.57
564.235	31715.73
564.445	31726.38
564.654	31746.49
564.863	31759.71
565.073	31780.58
565.282	31793.86
565.491	31811.51
565.7	31853.64
565.91	31907.82
566.119	31971.49
566.328	32035.09
566.537	32106.29
566.746	32172.2
566.956	32244.22
567.165	32327.57
567.374	32417.75
567.583	32532.38
567.792	32650.44
568.001	32784.48
568.21	32922.53
568.419	33084.77
568.628	33270.49
568.837	33439.77
569.046	33610.09
569.255	33758.18
569.464	33899.53
569.673	34048.89
569.882	34184.82
570.091	34325.78
570.3	34451.09
570.509	34558.71
570.718	34634.15
570.927	34669.89
571.135	34673.89
571.344	34650.38
571.553	34634.02
571.762	34639.18
571.971	34674.77
572.18	34747.15
572.388	34831.91
572.597	34916.37
572.806	35010.15
573.014	35095.37
573.223	35193.49
573.432	35326.55
573.641	35491.13
573.849	35638.37
574.058	35737.91
574.266	35763.4
574.475	35720.88
574.684	35652.26
574.892	35584.57
575.101	35537.4
575.309	35530.58
575.518	35558.53
575.726	35595.98
575.935	35667.33
576.143	35794.89
576.352	36005.82
576.56	36278.42
576.769	36560.69
576.977	36783.17
577.186	36911.53
577.394	36935.46
577.602	36866.04
577.811	36754.97
578.019	36657.86
578.228	36562.98
578.436	36460.89
578.644	36332.86
578.852	36168.53
579.061	36026.91
579.269	35924.69
579.477	35867.29
579.685	35930.28
579.894	36159.29
580.102	36534.62
580.31	37006.04
580.518	37475.4
580.726	37850.93
580.935	38103.2
581.143	38253.57
581.351	38292.86
581.559	38265.06
581.767	38187
581.975	38001.66
582.183	37661.06
582.391	37180.89
582.599	36625.33
582.807	36076.26
583.015	35632.48
583.223	35314.78
583.431	35127.68
583.639	35067.78
583.847	35122.48
584.055	35271.55
584.263	35456.02
584.471	35648.53
584.678	35801.06
584.886	35859.88
585.094	35839.82
585.302	35750.84
585.51	35635.69
585.718	35537.78
585.925	35450.97
586.133	35383.46
586.341	35303.35
586.549	35228.08
586.756	35149.66
586.964	35099.49
587.172	35089.48
587.379	35107.91
587.587	35114.93
587.795	35066.28
588.002	34922.78
588.21	34739.17
588.417	34507.62
588.625	34280.55
588.833	34071.35
589.04	33885.57
589.248	33710.42
589.455	33537.22
589.663	33360.38
589.87	33219.97
590.078	33121.35
590.285	33074.73
590.492	33031.84
590.7	32981.6
590.907	32931.49
591.115	32930.49
591.322	33015.26
591.529	33170.71
591.737	33383.04
591.944	33601
592.151	33779.84
592.359	33935.42
592.566	34046.37
592.773	34112.58
592.981	34162.69
593.188	34201.82
593.395	34211.95
593.602	34194.08
593.809	34146.58
594.017	34058.78
594.224	33959.77
594.431	33867.53
594.638	33759.82
594.845	33665.22
595.052	33589.57
595.259	33520.89
595.466	33445.33
595.673	33365.31
595.88	33246.68
596.088	33124.35
596.295	33015.62
596.502	32907.33
596.709	32818.02
596.915	32754.28
597.122	32729.29
597.329	32776.82
597.536	32892.66
597.743	33037.22
597.95	33158.35
598.157	33223.42
598.364	33236.58
598.571	33231.08
598.777	33253.57
598.984	33294.64
599.191	33342.29
599.398	33362.22
599.605	33340.22
599.811	33268
600.018	33172.6
600.225	33079.38
600.431	33027.53
600.638	32989.91
600.845	32952.64
601.052	32918.31
601.258	32894.2
601.465	32876.24
601.671	32889.78
601.878	32902.48
602.085	32914.35
602.291	32920.42
602.498	32881.95
602.704	32800.95
602.911	32678.6
603.117	32520.55
603.324	32311.37
603.53	32077.22
603.737	31836.11
603.943	31574.68
604.15	31304.31
604.356	31045.13
604.562	30768.09
604.769	30509.55
604.975	30259.53
605.181	30021.53
605.388	29800.22
605.594	29608.98
605.8	29418.91
606.007	29225.29
606.213	28997.04
606.419	28751.46
606.625	28460.98
606.832	28170.13
607.038	27878.13
607.244	27611.75
607.45	27364.91
607.656	27125.93
607.863	26868.4
608.069	26592.78
608.275	26313.86
608.481	26077.33
608.687	25858.68
608.893	25654.8
609.099	25445.38
609.305	25237.86
609.511	25006.68
609.717	24770.6
609.923	24539.22
610.129	24314
610.335	24094.95
610.541	23865.51
610.747	23598.53
610.953	23299.82
611.159	23001.58
611.365	22714.55
611.571	22443.08
611.776	22178.98
611.982	21912.93
612.188	21629.77
612.394	21341.6
612.6	21050.64
612.806	20763.68
613.011	20478.08
613.217	20200.71
613.423	19909.64
613.628	19623.29
613.834	19321.78
614.04	19043.68
614.246	18770.49
614.451	18501.98
614.657	18222.68
614.862	17945.91
615.068	17657.24
615.274	17374.35
615.479	17107.82
615.685	16846.4
615.89	16588.98
616.096	16338.75
616.301	16077.35
616.507	15808.93
616.712	15537.86
616.918	15276.44
617.123	15006.75
617.329	14735.26
617.534	14451.13
617.74	14153.88
617.945	13852.13
618.15	13522.51
618.356	12984.29
618.561	11958.13
618.766	10704.31
618.972	9407.2
619.177	8139.82
619.382	6905.95
619.588	5707.24
619.793	4998.37
619.998	4162.68
620.203	3159.87
620.408	1934.14
620.614	724.73
