Data from EG2.5_CA1_attempt3_MAYP1115451__0__15-55-54-101.txt Node

Date: Thu Jun 13 15:55:54 MDT 2024
User: Modes Lab
Spectrometer: MAYP111545
Trigger mode: 0
Integration Time (sec): 8.000000E-3
Scans to average: 5
Electric dark correction enabled: true
Nonlinearity correction enabled: false
Boxcar width: 5
XAxis mode: Wavelengths
Number of Pixels in Spectrum: 2068
>>>>>Begin Spectral Data<<<<<
165.214	165.97
165.449	165.43
165.683	175
165.918	184.67
166.152	190.66
166.387	196.55
166.621	129.65
166.856	168.36
167.09	187.56
167.325	212.87
167.559	228.98
167.794	243.2
168.028	251.62
168.263	252.62
168.497	252.31
168.732	254.53
168.966	254.89
169.2	254.44
169.435	256.78
169.669	258.65
169.903	258.67
170.138	260.6
170.372	261.51
170.606	262.98
170.841	263.62
171.075	264.98
171.309	264.95
171.544	266.18
171.778	268.11
172.012	269.24
172.246	269.76
172.48	270.84
172.715	272.11
172.949	273.15
173.183	274.8
173.417	276.85
173.651	277.75
173.885	278.69
174.119	278.73
174.354	278.25
174.588	278.53
174.822	279.67
175.056	279.69
175.29	279.78
175.524	279.78
175.758	278.4
175.992	278.78
176.226	279.98
176.46	280.75
176.694	282.38
176.928	283.67
177.162	283.78
177.396	284.13
177.63	285.51
177.864	286.87
178.097	289.25
178.331	291.11
178.565	291.35
178.799	291.53
179.033	292.25
179.267	292.49
179.5	293.09
179.734	294.58
179.968	295.62
180.202	296.35
180.436	296.8
180.669	296.93
180.903	296.55
181.137	297.98
181.371	298.87
181.604	299.05
181.838	299.67
182.072	301.75
182.305	302.67
182.539	302.53
182.772	302.85
183.006	303.91
183.24	304.58
183.473	309.42
183.707	310.78
183.94	311.38
184.174	313.47
184.408	315.09
184.641	314.44
184.875	315.73
185.108	317.55
185.342	319.8
185.575	321.02
185.808	322.55
186.042	320.93
186.275	321.2
186.509	321.93
186.742	322.8
186.976	323.98
187.209	325.93
187.442	327.13
187.676	328.58
187.909	328.76
188.142	329.33
188.376	330.75
188.609	331.95
188.842	334.11
189.076	336
189.309	337.49
189.542	338.95
189.775	340.24
190.009	341.73
190.242	343.15
190.475	345.76
190.708	347.64
190.941	349.33
191.174	351.38
191.408	352
191.641	353.55
191.874	354.76
192.107	356.6
192.34	359.35
192.573	361.96
192.806	363.67
193.039	364.16
193.272	365.36
193.505	365.96
193.738	367.67
193.971	369.96
194.204	370.76
194.437	372.47
194.67	374.71
194.903	375.2
195.136	375.38
195.369	377.45
195.602	379.33
195.835	381.82
196.068	384.27
196.301	385.58
196.533	386.89
196.766	389.33
196.999	391.13
197.232	391.93
197.465	392.87
197.698	394.38
197.93	395.87
198.163	398.98
198.396	400.44
198.629	401.58
198.861	402.89
199.094	404.38
199.327	406.33
199.559	408
199.792	409.25
200.025	411.04
200.257	413.55
200.49	414.67
200.723	415.15
200.955	416.58
201.188	419.27
201.42	421
201.653	423.69
201.886	425.45
202.118	426.29
202.351	427.75
202.583	430.49
202.816	431.58
203.048	433.71
203.281	435.04
203.513	437.64
203.745	438.93
203.978	440.62
204.21	440.67
204.443	442.73
204.675	445.38
204.907	448.91
205.14	450.33
205.372	451.51
205.605	453.25
205.837	454.45
206.069	455.05
206.302	455.36
206.534	457.02
206.766	459.58
206.998	461.13
207.231	462.76
207.463	463.09
207.695	465.05
207.927	467.65
208.159	469.15
208.392	470.73
208.624	472.96
208.856	475.33
209.088	477.09
209.32	479.29
209.552	480.2
209.784	482.11
210.017	482.91
210.249	483.96
210.481	486.71
210.713	488.8
210.945	491.87
211.177	493.05
211.409	494.25
211.641	495.96
211.873	497.29
212.105	498.58
212.337	499.4
212.569	501.24
212.801	502.73
213.033	502.71
213.264	504
213.496	504.71
213.728	506.02
213.96	508.82
214.192	509.38
214.424	510.04
214.656	511.87
214.887	512.93
215.119	515.13
215.351	516.84
215.583	517.91
215.815	518.45
216.046	520.38
216.278	522.18
216.51	523.85
216.741	525.73
216.973	527.71
217.205	527.62
217.436	529.35
217.668	531.93
217.9	532.62
218.131	534.18
218.363	535.49
218.595	536.91
218.826	537.56
219.058	536.4
219.289	537.22
219.521	538.31
219.752	540.04
219.984	540.36
220.215	539.36
220.447	539.98
220.678	540.84
220.91	541.42
221.141	540.93
221.373	541.2
221.604	543.18
221.836	544.65
222.067	543.96
222.298	544.29
222.53	545
222.761	545.93
222.993	545.95
223.224	546.2
223.455	547.56
223.686	549.25
223.918	550.98
224.149	551.47
224.38	551.13
224.612	552.84
224.843	553.4
225.074	555.45
225.305	556.6
225.536	557.09
225.768	557.82
225.999	557.8
226.23	558.05
226.461	556.91
226.692	558.02
226.923	560.02
227.155	560.64
227.386	561.91
227.617	561.05
227.848	561.07
228.079	563.67
228.31	563.07
228.541	563.42
228.772	563.38
229.003	564.11
229.234	563.56
229.465	562.96
229.696	561.89
229.927	562.42
230.158	562.76
230.389	561.71
230.62	561.02
230.85	562.02
231.081	562.18
231.312	562.51
231.543	564.05
231.774	564.69
232.005	564.67
232.236	565.38
232.466	564.42
232.697	564.84
232.928	565.22
233.159	565.42
233.389	566.65
233.62	568.44
233.851	568.93
234.082	566.78
234.312	567.38
234.543	566.95
234.774	566.49
235.004	567.56
235.235	568.33
235.466	568.78
235.696	570.31
235.927	569.87
236.157	568.96
236.388	571.15
236.618	574.53
236.849	575.29
237.08	576.18
237.31	577.87
237.541	577.85
237.771	578.27
238.002	579.29
238.232	579.29
238.463	580.42
238.693	582.25
238.923	582.2
239.154	582.71
239.384	583.71
239.615	587.6
239.845	590.73
240.075	595.22
240.306	599.65
240.536	604.02
240.766	608.05
240.997	613.35
241.227	618.44
241.457	624.71
241.687	632.76
241.918	642.2
242.148	651.45
242.378	663.13
242.608	676.18
242.839	692.6
243.069	712.84
243.299	735.82
243.529	763.93
243.759	792.47
243.989	824.89
244.22	861.69
244.45	904.45
244.68	952.38
244.91	1008.64
245.14	1070.51
245.37	1138.82
245.6	1214.55
245.83	1297.84
246.06	1387.04
246.29	1490.82
246.52	1599.71
246.75	1719.13
246.98	1847.65
247.21	1985.33
247.44	2131.25
247.67	2286.64
247.9	2451.76
248.13	2624.53
248.359	2804.51
248.589	2991.05
248.819	3186.02
249.049	3389.84
249.279	3597.22
249.509	3808.31
249.738	4026.11
249.968	4246.36
250.198	4472.67
250.428	4702.93
250.657	4930.64
250.887	5160.56
251.117	5395.11
251.347	5624.55
251.576	5854.84
251.806	6083.29
252.036	6311.42
252.265	6534.56
252.495	6752.75
252.725	6966.85
252.954	7172.55
253.184	7374.13
253.413	7570.36
253.643	7761.29
253.873	7945.8
254.102	8121.76
254.332	8295.51
254.561	8461.36
254.791	8621.75
255.02	8780.64
255.25	8926.4
255.479	9063.6
255.708	9200.8
255.938	9335.31
256.167	9456.05
256.397	9572.33
256.626	9686.22
256.856	9790.15
257.085	9886.25
257.314	9974.96
257.544	10054
257.773	10132.09
258.002	10212.16
258.232	10285.73
258.461	10352.2
258.69	10413.33
258.919	10471.84
259.149	10527.25
259.378	10579.69
259.607	10630.44
259.836	10676.44
260.065	10722.6
260.295	10767.85
260.524	10802.13
260.753	10840.58
260.982	10875.67
261.211	10912.78
261.44	10941.6
261.669	10969.64
261.899	10997.15
262.128	11022.85
262.357	11049.15
262.586	11068.93
262.815	11087.29
263.044	11111.35
263.273	11131.4
263.502	11141.51
263.731	11153.15
263.96	11166.36
264.189	11176.75
264.418	11180.93
264.646	11184.27
264.875	11187.04
265.104	11197.69
265.333	11205.13
265.562	11209.78
265.791	11215.33
266.02	11219.44
266.249	11227.36
266.477	11233.15
266.706	11242.8
266.935	11256.4
267.164	11274.13
267.393	11288.82
267.621	11304.55
267.85	11317.05
268.079	11329.84
268.307	11334.64
268.536	11351.65
268.765	11362.09
268.993	11373.82
269.222	11382.64
269.451	11396.85
269.679	11405.84
269.908	11419.02
270.137	11423.85
270.365	11442.76
270.594	11458.38
270.822	11478.53
271.051	11497.67
271.279	11513.67
271.508	11533.47
271.736	11555.96
271.965	11570.71
272.193	11592.84
272.422	11616.47
272.65	11642.89
272.879	11660.78
273.107	11680.71
273.336	11701.36
273.564	11716.18
273.792	11740.16
274.021	11762.09
274.249	11780.75
274.477	11805.02
274.706	11825.38
274.934	11840.51
275.162	11859.07
275.391	11879.45
275.619	11907.13
275.847	11929.82
276.075	11961.62
276.304	11990.49
276.532	12019.45
276.76	12046.73
276.988	12076.67
277.216	12099.25
277.445	12130.89
277.673	12161.69
277.901	12188.58
278.129	12207.02
278.357	12229.76
278.585	12257.25
278.813	12281.22
279.041	12307.76
279.269	12335.62
279.497	12358.55
279.725	12384.8
279.954	12414.6
280.182	12446
280.41	12473.25
280.637	12508.51
280.865	12538.76
281.093	12564.53
281.321	12590.53
281.549	12613.78
281.777	12638.04
282.005	12664.04
282.233	12698.47
282.461	12720.78
282.689	12740.07
282.916	12769.33
283.144	12793.16
283.372	12819.82
283.6	12844.53
283.828	12867.05
284.055	12896.42
284.283	12921.45
284.511	12953.4
284.739	12977.47
284.966	13001.22
285.194	13022.73
285.422	13040.58
285.649	13058.76
285.877	13080
286.105	13100.44
286.332	13128.51
286.56	13147.73
286.788	13171.24
287.015	13190.62
287.243	13213.33
287.47	13233.42
287.698	13262.98
287.925	13284.38
288.153	13310.29
288.381	13333.87
288.608	13359.69
288.836	13382.38
289.063	13401.49
289.29	13424.65
289.518	13440.47
289.745	13454.65
289.973	13483.64
290.2	13495.8
290.428	13518.6
290.655	13541.71
290.882	13563.33
291.11	13581.65
291.337	13595.47
291.564	13623.85
291.792	13643.36
292.019	13663.55
292.246	13681.09
292.473	13693.11
292.701	13710.33
292.928	13730.85
293.155	13742.36
293.382	13758.98
293.61	13769.73
293.837	13785.67
294.064	13798.04
294.291	13812.73
294.518	13824.58
294.745	13843.38
294.972	13858.44
295.2	13877.78
295.427	13886.82
295.654	13898.71
295.881	13907.44
296.108	13920.56
296.335	13938.36
296.562	13953.64
296.789	13964.27
297.016	13976.84
297.243	13989.11
297.47	13997.6
297.697	14001.11
297.924	14006.51
298.151	14013.22
298.378	14026.38
298.604	14027.09
298.831	14028.27
299.058	14024.71
299.285	14030.27
299.512	14036.38
299.739	14036.73
299.966	14046.96
300.192	14057.8
300.419	14061.42
300.646	14065.69
300.873	14064.09
301.099	14069.96
301.326	14068.69
301.553	14067.62
301.78	14062.62
302.006	14058.65
302.233	14057.87
302.46	14052.09
302.686	14042.05
302.913	14041.8
303.14	14031.89
303.366	14017.33
303.593	14017.71
303.819	14013.55
304.046	14007.53
304.272	13998.47
304.499	13989.42
304.725	13981.85
304.952	13972.09
305.179	13962.84
305.405	13953.49
305.631	13952.05
305.858	13949.16
306.084	13931.38
306.311	13918.07
306.537	13908.15
306.764	13897.91
306.99	13889.18
307.216	13880.13
307.443	13868.09
307.669	13858.69
307.895	13845.73
308.122	13831.78
308.348	13821.91
308.574	13810.47
308.801	13803.73
309.027	13794.47
309.253	13779.76
309.479	13767.73
309.706	13748.53
309.932	13732.33
310.158	13714.09
310.384	13701.51
310.61	13682.85
310.837	13662.55
311.063	13650.16
311.289	13625.27
311.515	13606.53
311.741	13592.42
311.967	13573.96
312.193	13556.29
312.419	13534.2
312.645	13521.56
312.871	13504.51
313.097	13490.2
313.323	13474.22
313.549	13454.51
313.775	13437.55
314.001	13415.47
314.227	13399.82
314.453	13377.09
314.679	13359.93
314.905	13344.09
315.131	13319.42
315.357	13295.69
315.583	13271.27
315.809	13248.2
316.034	13225.93
316.26	13210.27
316.486	13191.09
316.712	13174.31
316.938	13153.65
317.163	13131.38
317.389	13111.31
317.615	13093.95
317.841	13076.93
318.066	13057.85
318.292	13043.8
318.518	13025.82
318.743	12999.96
318.969	12981.15
319.195	12953.07
319.42	12940.93
319.646	12924.64
319.872	12902.53
320.097	12879.8
320.323	12860.4
320.548	12841.53
320.774	12822.93
320.999	12801.55
321.225	12781.91
321.45	12765.75
321.676	12749.91
321.901	12727.4
322.127	12711.65
322.352	12698.55
322.578	12683.42
322.803	12665.87
323.029	12651.6
323.254	12634.07
323.479	12622.11
323.705	12610.84
323.93	12596.67
324.155	12578.93
324.381	12567.45
324.606	12553.98
324.831	12537.96
325.057	12520.56
325.282	12500.02
325.507	12482.8
325.732	12462.09
325.958	12442.49
326.183	12427.4
326.408	12411.33
326.633	12396.15
326.858	12376.36
327.084	12350.47
327.309	12332.49
327.534	12316.05
327.759	12303.53
327.984	12285.76
328.209	12270.18
328.434	12256.07
328.659	12240.56
328.884	12224.64
329.109	12212.55
329.334	12195.35
329.559	12184.27
329.784	12173.13
330.009	12158.62
330.234	12149.24
330.459	12135.82
330.684	12117.69
330.909	12103.38
331.134	12090.31
331.359	12073.58
331.584	12061.25
331.809	12050.13
332.034	12037.67
332.259	12019.4
332.483	12012.87
332.708	11991.44
332.933	11981.44
333.158	11972.16
333.383	11961.05
333.607	11947.42
333.832	11935.38
334.057	11917.2
334.282	11908.51
334.506	11899.05
334.731	11889.51
334.956	11871.78
335.18	11862.84
335.405	11852.35
335.63	11842.91
335.854	11831.91
336.079	11820.82
336.303	11804.44
336.528	11791.02
336.753	11775.58
336.977	11758.47
337.202	11745.6
337.426	11730.76
337.651	11719.35
337.875	11701.69
338.1	11684.33
338.324	11663.98
338.549	11646.75
338.773	11636.31
338.997	11626.02
339.222	11612.69
339.446	11601.91
339.671	11587.91
339.895	11579.67
340.119	11565.55
340.344	11553.36
340.568	11542.95
340.792	11540.15
341.017	11532.53
341.241	11521.75
341.465	11510.15
341.689	11497.02
341.914	11481.44
342.138	11469.4
342.362	11458.6
342.586	11442.33
342.811	11430.93
343.035	11419.95
343.259	11396.25
343.483	11381.4
343.707	11365.05
343.931	11355.96
344.155	11342.27
344.38	11333.64
344.604	11319.8
344.828	11304.96
345.052	11298.93
345.276	11288.56
345.5	11276.98
345.724	11269.62
345.948	11260.53
346.172	11253.45
346.396	11246.47
346.62	11236.47
346.844	11224.53
347.068	11219.58
347.292	11206.82
347.515	11189.87
347.739	11169.58
347.963	11152.73
348.187	11139.93
348.411	11121.58
348.635	11107.95
348.859	11081.78
349.082	11064.24
349.306	11044.56
349.53	11024.02
349.754	11008.55
349.977	10995.6
350.201	10988.38
350.425	10972.6
350.649	10959.04
350.872	10944.47
351.096	10930.76
351.32	10921.55
351.543	10905.76
351.767	10891.67
351.99	10877.96
352.214	10866.11
352.438	10847.85
352.661	10830.09
352.885	10822.24
353.108	10805.6
353.332	10790.31
353.555	10769.27
353.779	10748.04
354.002	10737
354.226	10722
354.449	10708.65
354.673	10688.98
354.896	10678.33
355.12	10665.13
355.343	10648.95
355.566	10634.02
355.79	10620.15
356.013	10610.02
356.237	10603.87
356.46	10592.51
356.683	10580.62
356.907	10563.62
357.13	10553.75
357.353	10538.13
357.576	10527.11
357.8	10511.35
358.023	10502.96
358.246	10493.18
358.469	10478.82
358.693	10462.44
358.916	10447.13
359.139	10433.64
359.362	10421.38
359.585	10412.07
359.808	10401.95
360.031	10384.55
360.255	10374.56
360.478	10361.18
360.701	10351.78
360.924	10345.13
361.147	10331.93
361.37	10325.29
361.593	10320.25
361.816	10313.09
362.039	10301.29
362.262	10292.51
362.485	10284.82
362.708	10274.71
362.931	10266.42
363.154	10260.05
363.377	10250.24
363.599	10249.45
363.822	10239.02
364.045	10230.53
364.268	10224.98
364.491	10219.36
364.714	10210.6
364.936	10214.75
365.159	10222.15
365.382	10230.13
365.605	10230.64
365.828	10240.78
366.05	10247.95
366.273	10254.51
366.496	10264.29
366.718	10273.53
366.941	10280.2
367.164	10286.91
367.386	10283.45
367.609	10280.98
367.832	10275.91
368.054	10275.49
368.277	10263.4
368.5	10248.24
368.722	10234.36
368.945	10213.55
369.167	10195.22
369.39	10174.27
369.612	10161.85
369.835	10153.64
370.057	10139.33
370.28	10127.62
370.502	10113.65
370.725	10104.65
370.947	10099.95
371.169	10099.29
371.392	10101.45
371.614	10097.04
371.837	10102.84
372.059	10102.02
372.281	10094.45
372.504	10095.71
372.726	10093.47
372.948	10092.55
373.171	10099.33
373.393	10103.87
373.615	10114.07
373.837	10127.27
374.06	10149.93
374.282	10171.02
374.504	10192.55
374.726	10217.27
374.948	10230
375.17	10245.38
375.393	10260.22
375.615	10276.91
375.837	10300.27
376.059	10319.47
376.281	10340.78
376.503	10362.58
376.725	10384.65
376.947	10411.2
377.169	10439.18
377.391	10474.09
377.613	10516.18
377.835	10565.11
378.057	10611.62
378.279	10654.55
378.501	10687.04
378.723	10704.35
378.945	10717.29
379.167	10732.49
379.389	10745.13
379.611	10755.45
379.833	10765.65
380.054	10765
380.276	10754.36
380.498	10740.24
380.72	10727.31
380.942	10724.15
381.163	10749.42
381.385	10774.07
381.607	10798.49
381.829	10816.27
382.05	10832.87
382.272	10847.4
382.494	10864.62
382.716	10882.65
382.937	10905.95
383.159	10934.33
383.381	10957.18
383.602	10965.38
383.824	10978.53
384.045	10984.18
384.267	10990.56
384.488	11002.64
384.71	11014.87
384.932	11030.58
385.153	11050.31
385.375	11069.85
385.596	11090.45
385.818	11120.25
386.039	11156.82
386.261	11193.73
386.482	11237.25
386.703	11291.13
386.925	11340.36
387.146	11401.71
387.368	11464.71
387.589	11523.67
387.81	11568.65
388.032	11595.2
388.253	11606.47
388.474	11603.55
388.696	11591.16
388.917	11583.82
389.138	11568.91
389.359	11565.02
389.581	11555.56
389.802	11546.31
390.023	11546.42
390.244	11551.55
390.465	11576.56
390.687	11620.55
390.908	11680.6
391.129	11757.38
391.35	11845.96
391.571	11943.64
391.792	12046
392.013	12139.76
392.234	12216.89
392.455	12271.8
392.677	12317.8
392.898	12351.76
393.119	12386.49
393.34	12414.25
393.561	12432.98
393.782	12431.02
394.003	12419.64
394.223	12387.62
394.444	12357.38
394.665	12338.89
394.886	12334.93
395.107	12348.78
395.328	12376.15
395.549	12397.64
395.77	12420.31
395.99	12448.09
396.211	12488.64
396.432	12543.64
396.653	12615.75
396.874	12704.16
397.094	12803.22
397.315	12912.56
397.536	13012.91
397.757	13095.8
397.977	13163.8
398.198	13213.8
398.419	13254.09
398.639	13267.78
398.86	13268.51
399.081	13248.18
399.301	13214.35
399.522	13172.09
399.742	13130.29
399.963	13091.13
400.184	13054.93
400.404	13025.07
400.625	13004.51
400.845	12987.96
401.066	12985.64
401.286	12987.96
401.507	13003.42
401.727	13016.98
401.948	13037.27
402.168	13044.96
402.388	13060.65
402.609	13080.02
402.829	13112.45
403.05	13151.91
403.27	13195.87
403.49	13250.38
403.711	13302.96
403.931	13371.44
404.151	13433.84
404.372	13501.53
404.592	13570.09
404.812	13622.29
405.032	13657.25
405.253	13672.95
405.473	13677.29
405.693	13666.75
405.913	13644.67
406.133	13615.09
406.353	13567.49
406.574	13527.16
406.794	13473
407.014	13431.13
407.234	13419.56
407.454	13429.18
407.674	13450
407.894	13479.04
408.114	13512.84
408.334	13551.76
408.554	13599.55
408.774	13650.71
408.994	13699.89
409.214	13742.56
409.434	13769.56
409.654	13771.67
409.874	13770.29
410.094	13768.96
410.314	13773.47
410.534	13781.36
410.754	13792.13
410.974	13812.25
411.193	13839.69
411.413	13883.02
411.633	13939.91
411.853	14006.71
412.073	14072.22
412.292	14137.65
412.512	14203.13
412.732	14257.89
412.952	14297.65
413.171	14335.96
413.391	14347.31
413.611	14357.31
413.831	14352.93
414.05	14346.31
414.27	14339.04
414.489	14330.78
414.709	14326.98
414.929	14322.24
415.148	14321.53
415.368	14341.4
415.587	14361.76
415.807	14384.02
416.026	14403.16
416.246	14416.98
416.465	14431.53
416.685	14446.36
416.904	14465.53
417.124	14480.67
417.343	14499.53
417.563	14516.44
417.782	14538.55
418.002	14554.93
418.221	14589.02
418.44	14619.18
418.66	14659.25
418.879	14700.31
419.098	14750.13
419.318	14812.09
419.537	14888.36
419.756	14969.27
419.976	15067.02
420.195	15175.96
420.414	15299.67
420.633	15431.58
420.853	15567.25
421.072	15685.47
421.291	15785.64
421.51	15863.89
421.729	15929.82
421.948	15989.93
422.168	16045.42
422.387	16091.67
422.606	16107.98
422.825	16097.18
423.044	16056.58
423.263	16002.65
423.482	15964.16
423.701	15943.65
423.92	15941.13
424.139	15935.18
424.358	15912.93
424.577	15879.49
424.796	15826.45
425.015	15771.8
425.234	15730.15
425.453	15709.67
425.672	15712.29
425.891	15729.93
426.11	15764.24
426.328	15815.85
426.547	15868.89
426.766	15917.09
426.985	15947.45
427.204	15981.62
427.422	16033.31
427.641	16091.38
427.86	16155.6
428.079	16219.27
428.297	16294.16
428.516	16369.29
428.735	16442.87
428.954	16530.27
429.172	16624.27
429.391	16738.45
429.61	16854.09
429.828	16954.85
430.047	17030.29
430.265	17068.91
430.484	17080.8
430.703	17043.11
430.921	16972.56
431.14	16873.8
431.358	16774.65
431.577	16681.98
431.795	16597.8
432.014	16532.96
432.232	16517.8
432.451	16571.07
432.669	16687.62
432.887	16819.44
433.106	16938.85
433.324	17019.22
433.543	17081.49
433.761	17122.36
433.979	17177.69
434.198	17241.8
434.416	17292.36
434.634	17294.07
434.853	17240.49
435.071	17164.84
435.289	17099.96
435.507	17077.8
435.726	17109.56
435.944	17147.07
436.162	17183.35
436.38	17205.16
436.598	17218.11
436.817	17245.98
437.035	17288.56
437.253	17345.02
437.471	17385.51
437.689	17423.51
437.907	17446.4
438.125	17464.25
438.343	17488.18
438.561	17525.05
438.78	17558.64
438.998	17586.62
439.216	17603.93
439.434	17612.93
439.652	17646.75
439.869	17723.87
440.087	17827.15
440.305	17964.75
440.523	18107.09
440.741	18250.8
440.959	18374.38
441.177	18476.33
441.395	18577.04
441.613	18669.55
441.831	18764.16
442.048	18837.16
442.266	18881
442.484	18892.18
442.702	18886.16
442.919	18873.84
443.137	18870.16
443.355	18883.47
443.573	18918.49
443.79	18955.91
444.008	19001.02
444.226	19044.98
444.443	19068.13
444.661	19075.45
444.879	19086.15
445.096	19094.6
445.314	19109.38
445.532	19128.27
445.749	19141.8
445.967	19151.47
446.184	19159.89
446.402	19164.15
446.619	19163.27
446.837	19167.25
447.054	19174.84
447.272	19177.87
447.489	19177.78
447.707	19173.36
447.924	19180.82
448.141	19195.29
448.359	19219.29
448.576	19251.42
448.794	19275.2
449.011	19312.16
449.228	19340.87
449.446	19373.65
449.663	19395.2
449.88	19402.56
450.098	19407.95
450.315	19393.07
450.532	19389.29
450.749	19393.07
450.967	19394.71
451.184	19403.13
451.401	19403.29
451.618	19410.02
451.835	19410.09
452.052	19409.82
452.27	19419.71
452.487	19430.18
452.704	19444.56
452.921	19446.98
453.138	19443.76
453.355	19439.05
453.572	19445.09
453.789	19461.53
454.006	19495.35
454.223	19542.96
454.44	19599.76
454.657	19646.15
454.874	19683.84
455.091	19721.04
455.308	19759.27
455.525	19791.62
455.742	19840.75
455.959	19877.85
456.176	19930.27
456.393	19972.84
456.609	20016.93
456.826	20067.4
457.043	20131.18
457.26	20210.64
457.477	20289.73
457.693	20371.85
457.91	20446.73
458.127	20508.65
458.344	20576.91
458.56	20617.07
458.777	20654.13
458.994	20667.53
459.21	20658.13
459.427	20638.35
459.644	20608.96
459.86	20583.36
460.077	20555.44
460.294	20536.05
460.51	20505.64
460.727	20448.24
460.943	20385.53
461.16	20325.11
461.376	20282.78
461.593	20259.49
461.809	20250.62
462.026	20266.64
462.242	20287.64
462.459	20331.82
462.675	20386.42
462.892	20448.04
463.108	20542.8
463.324	20647.11
463.541	20759.33
463.757	20872.85
463.974	20979.76
464.19	21087.82
464.406	21178.49
464.623	21256.98
464.839	21307.11
465.055	21342.85
465.271	21356.55
465.488	21343.38
465.704	21315.75
465.92	21274.11
466.136	21221.82
466.353	21185.18
466.569	21141.65
466.785	21101.65
467.001	21067.87
467.217	21036.76
467.433	21003.65
467.649	20987.56
467.865	20983.11
468.082	20987.02
468.298	20993.05
468.514	21006.96
468.73	20999.24
468.946	20986.62
469.162	20972.11
469.378	20955.51
469.594	20939.98
469.81	20940.05
470.026	20953.58
470.242	20977.04
470.457	21014.27
470.673	21052.11
470.889	21092.44
471.105	21149.87
471.321	21218.93
471.537	21294.38
471.753	21392.93
471.968	21497.35
472.184	21610.56
472.4	21708.89
472.616	21800.11
472.832	21885.49
473.047	21972.31
473.263	22050.93
473.479	22138.71
473.694	22224.91
473.91	22308.15
474.126	22375.47
474.341	22452.35
474.557	22509.75
474.773	22553.6
474.988	22609.42
475.204	22666.49
475.42	22731.09
475.635	22793.04
475.851	22838.78
476.066	22869.76
476.282	22903.35
476.497	22944.35
476.713	22988.85
476.928	23043.56
477.144	23130.02
477.359	23200.78
477.575	23257.55
477.79	23312.91
478.005	23364.49
478.221	23422.95
478.436	23493.31
478.651	23565.05
478.867	23633.98
479.082	23697.47
479.297	23756.22
479.513	23794.95
479.728	23834.58
479.943	23882.15
480.159	23934.49
480.374	24005.71
480.589	24080.49
480.804	24146.11
481.019	24193.85
481.235	24225.47
481.45	24247.47
481.665	24259.76
481.88	24280.78
482.095	24318.84
482.31	24362.07
482.525	24405.18
482.741	24442.13
482.956	24485.24
483.171	24545.65
483.386	24626.27
483.601	24715.42
483.816	24810.33
484.031	24954.35
484.246	25338.91
484.461	26057.13
484.676	27018.31
484.891	28122.87
485.105	29088.38
485.32	29733.95
485.535	30125.13
485.75	30290.29
485.965	30342.38
486.18	30369.07
486.395	30337.73
486.609	30052.82
486.824	29413.24
487.039	28507.76
487.254	27431.45
487.469	26492.13
487.683	25862.98
487.898	25467.73
488.113	25286.4
488.327	25235.73
488.542	25199.04
488.757	25178.49
488.972	25163.25
489.186	25158.11
489.401	25175.45
489.615	25207.16
489.83	25231.67
490.045	25256.05
490.259	25286.78
490.474	25307.38
490.688	25295.91
490.903	25289.15
491.117	25289.64
491.332	25294.16
491.546	25303.38
491.761	25313.98
491.975	25330.53
492.19	25356.16
492.404	25364.09
492.618	25372.82
492.833	25393.2
493.047	25427.95
493.262	25457.25
493.476	25472.47
493.69	25483.11
493.905	25480.96
494.119	25465.4
494.333	25458.89
494.547	25447.4
494.762	25455.84
494.976	25487.8
495.19	25528.71
495.404	25568.51
495.619	25606.11
495.833	25636.58
496.047	25652.18
496.261	25671.07
496.475	25684.91
496.689	25683.84
496.903	25681.76
497.117	25673.47
497.332	25650.78
497.546	25612.95
497.76	25578.42
497.974	25548.38
498.188	25531.22
498.402	25535.49
498.616	25552.07
498.83	25568.76
499.044	25577.8
499.258	25582.87
499.472	25577.02
499.685	25568
499.899	25569.2
500.113	25579.22
500.327	25582.13
500.541	25591.53
500.755	25599.09
500.969	25600.8
501.183	25620.55
501.396	25638.76
501.61	25666.49
501.824	25703.38
502.038	25732.91
502.251	25754.8
502.465	25752.55
502.679	25760.89
502.892	25758.91
503.106	25750.51
503.32	25737.38
503.533	25720.27
503.747	25719.47
503.961	25722.04
504.174	25726.02
504.388	25733.13
504.602	25744.42
504.815	25762.42
505.029	25784.05
505.242	25812.4
505.456	25857.96
505.669	25902.91
505.883	25940.22
506.096	25968.29
506.31	25990.05
506.523	26015.15
506.736	26044.64
506.95	26071.15
507.163	26113.82
507.377	26160.47
507.59	26207.04
507.803	26240.98
508.017	26278.25
508.23	26325.35
508.443	26382.71
508.657	26441.16
508.87	26501.78
509.083	26560.11
509.296	26626.15
509.51	26690.47
509.723	26749.35
509.936	26811.31
510.149	26882.2
510.363	26969.78
510.576	27059.96
510.789	27156.31
511.002	27236.93
511.215	27322.4
511.428	27404.25
511.641	27482
511.854	27556.22
512.067	27634.51
512.28	27711.76
512.493	27796.76
512.707	27867.25
512.92	27939.38
513.132	27999.05
513.345	28086.91
513.558	28158.58
513.771	28244.73
513.984	28328.02
514.197	28414.85
514.41	28500.87
514.623	28592.87
514.836	28674.93
515.049	28772.65
515.262	28863.25
515.474	28963.71
515.687	29048.73
515.9	29138.49
516.113	29216.47
516.325	29284.38
516.538	29359.56
516.751	29430.84
516.964	29492.82
517.176	29557.62
517.389	29615.44
517.602	29675.78
517.814	29739.18
518.027	29815.4
518.24	29895.11
518.452	29977.85
518.665	30057.73
518.877	30121.78
519.09	30182.93
519.303	30235.42
519.515	30287.76
519.728	30346.87
519.94	30395.76
520.153	30443.65
520.365	30483.45
520.578	30510.96
520.79	30543.73
521.002	30580.64
521.215	30617.71
521.427	30661.56
521.64	30716.73
521.852	30761.95
522.064	30791.45
522.277	30843.05
522.489	30888.24
522.701	30926.73
522.914	30991.47
523.126	31028.31
523.338	31074.65
523.551	31122.15
523.763	31157.04
523.975	31187.93
524.187	31229.15
524.399	31270.27
524.612	31307.22
524.824	31347.33
525.036	31395.45
525.248	31410.85
525.46	31455.2
525.672	31495.71
525.884	31532.56
526.096	31583.09
526.308	31626.36
526.521	31662.45
526.733	31698.78
526.945	31727.65
527.157	31750.24
527.369	31784.75
527.581	31836.58
527.793	31876.65
528.004	31914.56
528.216	31950.33
528.428	31971.91
528.64	32002.05
528.852	32033.8
529.064	32068.71
529.276	32100.2
529.488	32129.65
529.699	32140.38
529.911	32147.18
530.123	32139.22
530.335	32149.2
530.547	32171.33
530.758	32196.55
530.97	32219.31
531.182	32248.35
531.393	32272.6
531.605	32310.47
531.817	32357.18
532.029	32411.29
532.24	32475.62
532.452	32549.05
532.663	32615.49
532.875	32668.8
533.087	32712.22
533.298	32754.09
533.51	32796.31
533.721	32845.24
533.933	32877.6
534.144	32913.27
534.356	32934.49
534.567	32926.93
534.779	32931.58
534.99	32914.15
535.202	32906.71
535.413	32897.85
535.624	32898.67
535.836	32893.69
536.047	32887.4
536.259	32894.8
536.47	32886.93
536.681	32901.65
536.893	32934.62
537.104	32971.45
537.315	33015.27
537.526	33061.71
537.738	33123.22
537.949	33165.27
538.16	33207.96
538.371	33243.96
538.582	33270.64
538.794	33296.31
539.005	33300.22
539.216	33307.25
539.427	33303.95
539.638	33316
539.849	33317.31
540.06	33321.51
540.272	33333.89
540.483	33346.05
540.694	33360.56
540.905	33391.33
541.116	33426.96
541.327	33468.75
541.538	33495.38
541.749	33520.35
541.96	33527.47
542.17	33542.35
542.381	33564.49
542.592	33592.58
542.803	33611.44
543.014	33640.42
543.225	33644.35
543.436	33655.44
543.647	33658.18
543.857	33680.27
544.068	33687.15
544.279	33704.05
544.49	33708.62
544.701	33693.8
544.911	33670.96
545.122	33661.36
545.333	33643.07
545.543	33649.11
545.754	33646.22
545.965	33660.55
546.175	33663.33
546.386	33692.84
546.597	33731.95
546.807	33784.58
547.018	33840.89
547.229	33898.29
547.439	33942.07
547.65	33974.8
547.86	33983.38
548.071	33989.49
548.281	33986.05
548.492	33988.02
548.702	33978.04
548.913	33960.98
549.123	33927.33
549.333	33899.93
549.544	33873.65
549.754	33855.36
549.965	33844.91
550.175	33839.69
550.385	33845.91
550.596	33867.58
550.806	33896.96
551.016	33929.49
551.227	33959.4
551.437	33984.53
551.647	34016.29
551.857	34034.35
552.068	34055.07
552.278	34081.44
552.488	34114.04
552.698	34133.18
552.908	34143.49
553.119	34142.05
553.329	34130.16
553.539	34119.4
553.749	34121.6
553.959	34126.33
554.169	34163.8
554.379	34196.62
554.589	34228.09
554.799	34257.15
555.009	34287.05
555.219	34305.24
555.429	34317.18
555.639	34333.55
555.849	34338.25
556.059	34346.29
556.269	34342.64
556.479	34320.76
556.689	34307.8
556.899	34290.76
557.109	34273.55
557.319	34255.35
557.528	34232.13
557.738	34222.31
557.948	34212.75
558.158	34214.62
558.368	34221.65
558.577	34235.36
558.787	34263.69
558.997	34298.53
559.207	34341.35
559.416	34374.65
559.626	34418.56
559.836	34477.16
560.045	34525.49
560.255	34574.49
560.465	34617.29
560.674	34645.75
560.884	34671.84
561.093	34666.24
561.303	34655.75
561.512	34642.36
561.722	34639.38
561.932	34632.36
562.141	34627.65
562.351	34625.36
562.56	34631.05
562.769	34642.44
562.979	34662.47
563.188	34680.87
563.398	34718.96
563.607	34747.13
563.817	34776.29
564.026	34798.78
564.235	34817.35
564.445	34833.73
564.654	34847.65
564.863	34863.67
565.073	34872.53
565.282	34893.18
565.491	34912.65
565.7	34958.31
565.91	35029.62
566.119	35095.2
566.328	35174.95
566.537	35266.51
566.746	35346.85
566.956	35441.78
567.165	35537.75
567.374	35658.35
567.583	35784.33
567.792	35931.04
568.001	36075.29
568.21	36222.96
568.419	36415.31
568.628	36613.96
568.837	36794.56
569.046	36964.98
569.255	37109
569.464	37261.6
569.673	37417.47
569.882	37578.65
570.091	37734.05
570.3	37870.25
570.509	37993.89
570.718	38066.84
570.927	38105.96
571.135	38111.75
571.344	38096.95
571.553	38096.6
571.762	38104
571.971	38139.55
572.18	38226.71
572.388	38320.36
572.597	38421.35
572.806	38511.31
573.014	38615.22
573.223	38734.25
573.432	38884.05
573.641	39065.69
573.849	39230.33
574.058	39342.44
574.266	39381
574.475	39308.44
574.684	39210.6
574.892	39131.58
575.101	39079.16
575.309	39072.62
575.518	39089.75
575.726	39124.71
575.935	39201.62
576.143	39344.53
576.352	39570.29
576.56	39879.36
576.769	40202.96
576.977	40471.07
577.186	40625.4
577.394	40664.47
577.602	40589.64
577.811	40487.49
578.019	40388.85
578.228	40283.22
578.436	40160.73
578.644	40018.25
578.852	39830.18
579.061	39659.73
579.269	39540.96
579.477	39470.58
579.685	39532.2
579.894	39782.71
580.102	40181.47
580.31	40687.76
580.518	41205.22
580.726	41627.69
580.935	41918.31
581.143	42090.38
581.351	42151.98
581.559	42113.82
581.767	42025.56
581.975	41831.47
582.183	41472.11
582.391	40958.75
582.599	40359.09
582.807	39755.44
583.015	39263.65
583.223	38906.55
583.431	38701.67
583.639	38630.16
583.847	38696.87
584.055	38862.36
584.263	39078.73
584.471	39294.78
584.678	39462.42
584.886	39539.09
585.094	39525.18
585.302	39437.31
585.51	39332.09
585.718	39214.73
585.925	39122.85
586.133	39040.51
586.341	38953.56
586.549	38859.02
586.756	38775.8
586.964	38726.02
587.172	38709.09
587.379	38722.35
587.587	38729.6
587.795	38668.67
588.002	38530.82
588.21	38332.87
588.417	38098.62
588.625	37846.47
588.833	37619.27
589.04	37407.13
589.248	37198.11
589.455	36998.44
589.663	36817.85
589.87	36663.69
590.078	36548.55
590.285	36477.56
590.492	36426.58
590.7	36356
590.907	36301.76
591.115	36307.04
591.322	36396.2
591.529	36578.69
591.737	36817.31
591.944	37042.93
592.151	37238.47
592.359	37406.4
592.566	37535.64
592.773	37615.07
592.981	37672.91
593.188	37722.18
593.395	37740.93
593.602	37720.38
593.809	37664.25
594.017	37569.6
594.224	37473.55
594.431	37368.51
594.638	37260.6
594.845	37157.62
595.052	37071.55
595.259	37002.16
595.466	36925.89
595.673	36814.55
595.88	36687.73
596.088	36552.25
596.295	36429.56
596.502	36313.38
596.709	36226.95
596.915	36162.55
597.122	36126.07
597.329	36179.02
597.536	36300.42
597.743	36452
597.95	36587.55
598.157	36662.67
598.364	36678.11
598.571	36679.87
598.777	36702.93
598.984	36742.78
599.191	36785.96
599.398	36825.38
599.605	36810.4
599.811	36746.25
600.018	36645.13
600.225	36552.29
600.431	36495.51
600.638	36456.89
600.845	36425.16
601.052	36388.02
601.258	36365.95
601.465	36360.78
601.671	36387.16
601.878	36398.27
602.085	36414.16
602.291	36424.64
602.498	36383.2
602.704	36299.91
602.911	36176.45
603.117	35998.24
603.324	35771.07
603.53	35501.42
603.737	35212.73
603.943	34903.38
604.15	34594.87
604.356	34282.44
604.562	33974.76
604.769	33676.93
604.975	33388.8
605.181	33109.2
605.388	32845.16
605.594	32610.8
605.8	32397.04
606.007	32179.78
606.213	31940.38
606.419	31670.47
606.625	31359.85
606.832	31029.89
607.038	30709.58
607.244	30403.05
607.45	30136.02
607.656	29877.4
607.863	29599.98
608.069	29289.71
608.275	28985.31
608.481	28708.04
608.687	28465.31
608.893	28236.56
609.099	28003.25
609.305	27764.55
609.511	27519.44
609.717	27251.8
609.923	26985.87
610.129	26729.84
610.335	26492.05
610.541	26235.42
610.747	25931.51
610.953	25585.29
611.159	25243.84
611.365	24924.91
611.571	24626.47
611.776	24328.96
611.982	24016.91
612.188	23702.11
612.394	23380.89
612.6	23048.04
612.806	22727
613.011	22407.96
613.217	22107.55
613.423	21794.87
613.628	21470.35
613.834	21141.8
614.04	20828.4
614.246	20544.49
614.451	20256.91
614.657	19957.15
614.862	19652.13
615.068	19333.65
615.274	19023.38
615.479	18725.87
615.685	18441.76
615.89	18168.42
616.096	17892.22
616.301	17605.15
616.507	17305.02
616.712	17012.64
616.918	16721.15
617.123	16425.44
617.329	16123.71
617.534	15818.89
617.74	15492.78
617.945	15157.33
618.15	14785.84
618.356	14196.11
618.561	13074.27
618.766	11700.36
618.972	10271.76
619.177	8886.44
619.382	7541.53
619.588	6236.29
619.793	5456.88
619.998	4545.69
620.203	3446.5
620.408	2113.66
620.614	788.1
