Data from blank_MAYP1115451__0__11-52-51-420.txt Node

Date: Thu May 30 11:52:51 MDT 2024
User: Modes Lab
Spectrometer: MAYP111545
Trigger mode: 0
Integration Time (sec): 7.200000E-3
Scans to average: 5
Electric dark correction enabled: true
Nonlinearity correction enabled: false
Boxcar width: 5
XAxis mode: Wavelengths
Number of Pixels in Spectrum: 2068
>>>>>Begin Spectral Data<<<<<
165.214	5332.03
165.449	4591.52
165.683	4046.43
165.918	3625.52
166.152	3288.41
166.387	3011.51
166.621	119.52
166.856	157.16
167.09	175.63
167.325	198.43
167.559	215.2
167.794	231.42
168.028	239.29
168.263	240.4
168.497	238.87
168.732	238.14
168.966	238.45
169.2	238.6
169.435	239.72
169.669	240.63
169.903	241.14
170.138	242.03
170.372	242.07
170.606	241.83
170.841	241.82
171.075	241.51
171.309	241.03
171.544	240.94
171.778	241.67
172.012	242.51
172.246	242.12
172.48	242.43
172.715	243.63
172.949	244.63
173.183	246.27
173.417	247.02
173.651	248.4
173.885	249.8
174.119	250.47
174.354	251.32
174.588	250.43
174.822	251.29
175.056	252
175.29	252.27
175.524	252
175.758	252.94
175.992	253.29
176.226	254.25
176.46	253.54
176.694	253.8
176.928	254.31
177.162	256.07
177.396	256.27
177.63	257.38
177.864	257.74
178.097	258.74
178.331	259.38
178.565	260.47
178.799	261.05
179.033	263
179.267	264.2
179.5	266.09
179.734	266.76
179.968	268.82
180.202	269.72
180.436	271.72
180.669	273.2
180.903	274.69
181.137	276.63
181.371	279.18
181.604	282.31
181.838	285.74
182.072	289.51
182.305	293.8
182.539	297.85
182.772	303.69
183.006	309.34
183.24	315.98
183.473	325.02
183.707	333.91
183.94	343.32
184.174	354.89
184.408	368.2
184.641	381.36
184.875	396.96
185.108	412.23
185.342	427.58
185.575	446.34
185.808	469.36
186.042	492.83
186.275	517.8
186.509	544.14
186.742	567.62
186.976	590.87
187.209	615.8
187.442	645.65
187.676	679.8
187.909	716
188.142	751.25
188.376	785.65
188.609	817.36
188.842	850.43
189.076	882.67
189.309	919.56
189.542	960.85
189.775	1007.62
190.009	1053.31
190.242	1096.56
190.475	1140.82
190.708	1183.45
190.941	1223.25
191.174	1266.09
191.408	1312.65
191.641	1364.36
191.874	1419.2
192.107	1474.36
192.34	1524.12
192.573	1575.65
192.806	1628.67
193.039	1678.98
193.272	1731.83
193.505	1787.02
193.738	1845.47
193.971	1903.43
194.204	1958.71
194.437	2013.2
194.67	2064.36
194.903	2117.22
195.136	2170.82
195.369	2225.96
195.602	2282.34
195.835	2342.91
196.068	2404.49
196.301	2463.25
196.533	2522.12
196.766	2582.25
196.999	2642.8
197.232	2704.31
197.465	2765.8
197.698	2824.67
197.93	2886.74
198.163	2953.47
198.396	3020.36
198.629	3085.31
198.861	3153.71
199.094	3222.62
199.327	3293.11
199.559	3362.91
199.792	3438.29
200.025	3513.72
200.257	3593.45
200.49	3673.76
200.723	3753.12
200.955	3835.16
201.188	3921.58
201.42	4011.16
201.653	4101.49
201.886	4191.42
202.118	4284.78
202.351	4380.34
202.583	4480.52
202.816	4577.49
203.048	4681.45
203.281	4788.96
203.513	4894.34
203.745	5006.32
203.978	5120.03
204.21	5235.74
204.443	5356.02
204.675	5478.03
204.907	5602.58
205.14	5730.12
205.372	5865.89
205.605	5992.6
205.837	6124.14
206.069	6262.71
206.302	6402.47
206.534	6543.12
206.766	6687.96
206.998	6833.91
207.231	6985.31
207.463	7138.12
207.695	7301.87
207.927	7463.12
208.159	7628.98
208.392	7799.47
208.624	7967.96
208.856	8146.16
209.088	8319.6
209.32	8500.6
209.552	8682.8
209.784	8870.14
210.017	9058.78
210.249	9242.2
210.481	9432.16
210.713	9629.47
210.945	9827.38
211.177	10021.78
211.409	10221.42
211.641	10433.4
211.873	10644.16
212.105	10862.6
212.337	11077.23
212.569	11304.07
212.801	11530.05
213.033	11762.27
213.264	12002.2
213.496	12242.78
213.728	12504.14
213.96	12753.2
214.192	13009.29
214.424	13270.36
214.656	13532.65
214.887	13801.78
215.119	14068.62
215.351	14345.43
215.583	14615.16
215.815	14891.94
216.046	15173.05
216.278	15449.89
216.51	15740.2
216.741	16018.34
216.973	16294.94
217.205	16591.47
217.436	16887.4
217.668	17177.03
217.9	17468.87
218.131	17767.54
218.363	18063.47
218.595	18371.83
218.826	18677.4
219.058	18989.65
219.289	19307.11
219.521	19639.34
219.752	19944.83
219.984	20257.56
220.215	20582.72
220.447	20914.6
220.678	21251.52
220.91	21583.03
221.141	21907.67
221.373	22247.89
221.604	22585.89
221.836	22930.11
222.067	23265.83
222.298	23621.4
222.53	23975.76
222.761	24325.87
222.993	24680.76
223.224	25032.36
223.455	25396.25
223.686	25749.42
223.918	26103.54
224.149	26456.58
224.38	26813.91
224.612	27179.18
224.843	27550.03
225.074	27913.65
225.305	28280.71
225.536	28630.78
225.768	28991.54
225.999	29351.67
226.23	29719.87
226.461	30070.8
226.692	30425.62
226.923	30786.82
227.155	31147.94
227.386	31499.22
227.617	31857.94
227.848	32223.09
228.079	32602.74
228.31	32974
228.541	33341.74
228.772	33703.47
229.003	34088.49
229.234	34460.42
229.465	34831.71
229.696	35194.65
229.927	35557.87
230.158	35913.96
230.389	36280.09
230.62	36641.42
230.85	37004.83
231.081	37367.12
231.312	37728.52
231.543	38069.05
231.774	38419.83
232.005	38766.83
232.236	39117.16
232.466	39468.45
232.697	39818.6
232.928	40139.32
233.159	40452.94
233.389	40762.16
233.62	41070.92
233.851	41365.34
234.082	41658.89
234.312	41951.09
234.543	42226.85
234.774	42501.12
235.004	42753.34
235.235	42995.63
235.466	43239.29
235.696	43482.96
235.927	43721.02
236.157	43945.02
236.388	44178.6
236.618	44415.67
236.849	44629.91
237.08	44845.14
237.31	45047.96
237.541	45248.56
237.771	45447.23
238.002	45645.51
238.232	45838.62
238.463	46029.67
238.693	46214.38
238.923	46389.69
239.154	46551.91
239.384	46708.29
239.615	46855.47
239.845	46999.56
240.075	47153.34
240.306	47307.49
240.536	47443.72
240.766	47573.02
240.997	47700.58
241.227	47830.85
241.457	47952.02
241.687	48070.22
241.918	48200.29
242.148	48328.51
242.378	48443.6
242.608	48555.05
242.839	48665.6
243.069	48780.58
243.299	48889.69
243.529	48990.76
243.759	49082.11
243.989	49193.96
244.22	49307.43
244.45	49409.52
244.68	49512.89
244.91	49615.74
245.14	49715.74
245.37	49827.82
245.6	49925.51
245.83	50032.43
246.06	50142.58
246.29	50249.51
246.52	50341.25
246.75	50433.07
246.98	50530.82
247.21	50623.03
247.44	50725.02
247.67	50827.36
247.9	50905.36
248.13	50999.51
248.359	51098.74
248.589	51182.25
248.819	51284.54
249.049	51390.2
249.279	51494.63
249.509	51576.98
249.738	51666.42
249.968	51746.07
250.198	51814.36
250.428	51894.49
250.657	51976.96
250.887	52047.45
251.117	52123.63
251.347	52203.23
251.576	52274.98
251.806	52339.02
252.036	52418.07
252.265	52485.8
252.495	52565.31
252.725	52648.74
252.954	52716.52
253.184	52787.96
253.413	52850.45
253.643	52920.56
253.873	52961.27
254.102	53007.58
254.332	53050.32
254.561	53095.87
254.791	53151.8
255.02	53212.74
255.25	53276.8
255.479	53328.43
255.708	53375.6
255.938	53416.34
256.167	53464.62
256.397	53506.43
256.626	53541.6
256.856	53577.62
257.085	53604.82
257.314	53629.45
257.544	53627.03
257.773	53626.32
258.002	53646.23
258.232	53667.62
258.461	53710.45
258.69	53736.56
258.919	53769.07
259.149	53800.49
259.378	53834.69
259.607	53875.45
259.836	53918.65
260.065	53967.09
260.295	54008.31
260.524	54055.91
260.753	54096.25
260.982	54129.38
261.211	54160.03
261.44	54197.91
261.669	54245.12
261.899	54295.14
262.128	54329.6
262.357	54364.98
262.586	54404.8
262.815	54434.78
263.044	54466.22
263.273	54496.92
263.502	54516.32
263.731	54543.6
263.96	54558.51
264.189	54567.22
264.418	54587.2
264.646	54617.23
264.875	54646.43
265.104	54675.91
265.333	54713.72
265.562	54745.56
265.791	54782.76
266.02	54803.63
266.249	54835.56
266.477	54872.18
266.706	54920.22
266.935	54947.87
267.164	55004.45
267.393	55058.85
267.621	55116.67
267.85	55175.83
268.079	55240.56
268.307	55296.76
268.536	55370.31
268.765	55434.38
268.993	55532.02
269.222	55611.29
269.451	55704.52
269.679	55780.29
269.908	55861.63
270.137	55940.36
270.365	56020.14
270.594	56094.82
270.822	56194
271.051	56311.09
271.279	56434.51
271.508	56526.96
271.736	56636.38
271.965	56752.52
272.193	56861.4
272.422	56975.69
272.65	57093.74
272.879	57227.32
273.107	57363.25
273.336	57487.07
273.564	57592.03
273.792	57693.94
274.021	57820.34
274.249	57946.27
274.477	58068.31
274.706	58208.85
274.934	58340.43
275.162	58481.2
275.391	58618
275.619	58756.16
275.847	58896.6
276.075	59063.69
276.304	59220.69
276.532	59370.11
276.76	59529.91
276.988	59695.6
277.216	59853.92
277.445	60010.32
277.673	60164.82
277.901	60325.09
278.129	60483.34
278.357	60635.05
278.585	60762.78
278.813	60889.2
279.041	61002.87
279.269	61096.03
279.497	61168.49
279.725	61225.78
279.954	61276.02
280.182	61312.6
280.41	61328.85
280.637	61338.62
280.865	61339.83
281.093	61339.83
281.321	61339.83
281.549	61339.83
281.777	61339.83
282.005	61339.83
282.233	61339.83
282.461	61339.83
282.689	61339.83
282.916	61339.83
283.144	61339.83
283.372	61339.83
283.6	61339.83
283.828	61339.83
284.055	61339.83
284.283	61339.83
284.511	61339.83
284.739	61339.83
284.966	61339.83
285.194	61339.83
285.422	61339.83
285.649	61339.83
285.877	61339.83
286.105	61339.83
286.332	61339.83
286.56	61339.83
286.788	61339.83
287.015	61339.83
287.243	61339.83
287.47	61339.83
287.698	61339.83
287.925	61339.83
288.153	61339.83
288.381	61339.83
288.608	61339.83
288.836	61339.83
289.063	61339.83
289.29	61339.83
289.518	61339.83
289.745	61339.83
289.973	61339.83
290.2	61339.83
290.428	61339.83
290.655	61339.83
290.882	61339.83
291.11	61339.83
291.337	61339.83
291.564	61339.83
291.792	61339.83
292.019	61339.83
292.246	61339.83
292.473	61339.83
292.701	61339.83
292.928	61339.83
293.155	61339.83
293.382	61339.83
293.61	61339.83
293.837	61339.83
294.064	61339.83
294.291	61339.83
294.518	61339.83
294.745	61339.83
294.972	61339.83
295.2	61339.83
295.427	61339.83
295.654	61339.83
295.881	61339.83
296.108	61339.83
296.335	61339.83
296.562	61339.83
296.789	61339.83
297.016	61339.83
297.243	61339.83
297.47	61339.83
297.697	61339.83
297.924	61339.83
298.151	61339.83
298.378	61339.83
298.604	61339.83
298.831	61339.83
299.058	61339.83
299.285	61339.83
299.512	61339.83
299.739	61339.83
299.966	61339.83
300.192	61339.83
300.419	61339.83
300.646	61339.83
300.873	61339.83
301.099	61339.83
301.326	61339.83
301.553	61339.83
301.78	61339.83
302.006	61339.83
302.233	61339.83
302.46	61339.83
302.686	61339.83
302.913	61339.83
303.14	61339.83
303.366	61339.83
303.593	61339.83
303.819	61339.83
304.046	61339.83
304.272	61339.83
304.499	61339.83
304.725	61339.83
304.952	61339.83
305.179	61339.83
305.405	61339.83
305.631	61339.83
305.858	61339.83
306.084	61339.83
306.311	61339.83
306.537	61339.83
306.764	61339.83
306.99	61339.83
307.216	61339.83
307.443	61339.83
307.669	61339.83
307.895	61339.83
308.122	61339.83
308.348	61339.83
308.574	61339.83
308.801	61339.83
309.027	61339.83
309.253	61339.83
309.479	61339.83
309.706	61339.83
309.932	61339.83
310.158	61339.83
310.384	61339.83
310.61	61339.83
310.837	61339.83
311.063	61339.83
311.289	61339.83
311.515	61339.83
311.741	61339.83
311.967	61339.83
312.193	61339.83
312.419	61339.83
312.645	61339.83
312.871	61339.83
313.097	61339.83
313.323	61339.83
313.549	61339.83
313.775	61339.83
314.001	61339.83
314.227	61339.83
314.453	61339.83
314.679	61339.83
314.905	61339.83
315.131	61339.83
315.357	61339.83
315.583	61339.83
315.809	61339.83
316.034	61339.83
316.26	61339.83
316.486	61339.83
316.712	61339.83
316.938	61339.83
317.163	61339.83
317.389	61339.83
317.615	61339.83
317.841	61339.83
318.066	61339.83
318.292	61339.83
318.518	61339.83
318.743	61339.83
318.969	61339.83
319.195	61339.83
319.42	61339.83
319.646	61339.83
319.872	61339.83
320.097	61339.83
320.323	61339.83
320.548	61339.83
320.774	61339.83
320.999	61339.83
321.225	61339.83
321.45	61339.83
321.676	61339.83
321.901	61339.83
322.127	61339.83
322.352	61339.83
322.578	61339.83
322.803	61339.83
323.029	61339.83
323.254	61339.83
323.479	61339.83
323.705	61339.83
323.93	61339.83
324.155	61339.83
324.381	61339.83
324.606	61339.83
324.831	61339.83
325.057	61339.83
325.282	61339.83
325.507	61339.83
325.732	61339.83
325.958	61339.83
326.183	61339.83
326.408	61339.83
326.633	61339.83
326.858	61339.83
327.084	61339.83
327.309	61339.83
327.534	61339.83
327.759	61339.83
327.984	61336.29
328.209	61333.82
328.434	61328.09
328.659	61320.71
328.884	61308.96
329.109	61288.71
329.334	61256.07
329.559	61203.58
329.784	61149.52
330.009	61087.32
330.234	61010.11
330.459	60927.52
330.684	60836.62
330.909	60734.71
331.134	60619.96
331.359	60507.72
331.584	60396.49
331.809	60295.54
332.034	60184.82
332.259	60075.58
332.483	59977.05
332.708	59873.38
332.933	59771.87
333.158	59667.62
333.383	59583.27
333.607	59499.65
333.832	59399.07
334.057	59307.69
334.282	59209.56
334.506	59130.31
334.731	59042.34
334.956	58948.54
335.18	58861.23
335.405	58771.09
335.63	58684.76
335.854	58578.6
336.079	58478.76
336.303	58387.02
336.528	58281.56
336.753	58168.32
336.977	58070.6
337.202	57955.62
337.426	57849.63
337.651	57756.43
337.875	57649.29
338.1	57544.8
338.324	57438.91
338.549	57338.05
338.773	57239.91
338.997	57150.52
339.222	57066.74
339.446	56964.82
339.671	56879.89
339.895	56780.4
340.119	56677.89
340.344	56595.6
340.568	56495.25
340.792	56401.94
341.017	56304.2
341.241	56195.8
341.465	56077.32
341.689	55968.03
341.914	55863.92
342.138	55749.74
342.362	55642.11
342.586	55530.23
342.811	55400.94
343.035	55294.74
343.259	55176.65
343.483	55046.63
343.707	54938.63
343.931	54834.14
344.155	54713.52
344.38	54595.74
344.604	54503.42
344.828	54403.69
345.052	54290.54
345.276	54188.02
345.5	54073.02
345.724	53969.03
345.948	53881.78
346.172	53787.03
346.396	53684.85
346.62	53584.91
346.844	53485.63
347.068	53367.12
347.292	53235.09
347.515	53105.54
347.739	52986.14
347.963	52855.98
348.187	52726.91
348.411	52585.09
348.635	52441.89
348.859	52287.49
349.082	52156.43
349.306	52010.25
349.53	51866.56
349.754	51735.43
349.977	51616.96
350.201	51481.05
350.425	51371.09
350.649	51235.14
350.872	51114.92
351.096	50991.47
351.32	50890.52
351.543	50751.38
351.767	50628.98
351.99	50500.6
352.214	50371.87
352.438	50243.58
352.661	50113.07
352.885	49967.83
353.108	49836.09
353.332	49699.8
353.555	49553.87
353.779	49412.38
354.002	49286.96
354.226	49149.83
354.449	49021.43
354.673	48891.22
354.896	48744.2
355.12	48606.16
355.343	48484.47
355.566	48362.52
355.79	48236.49
356.013	48118.25
356.237	47991.62
356.46	47861.32
356.683	47728.18
356.907	47590.91
357.13	47448.07
357.353	47334.32
357.576	47214.85
357.8	47084.78
358.023	46959.6
358.246	46820.72
358.469	46680.25
358.693	46542.63
358.916	46407.34
359.139	46282.18
359.362	46151.05
359.585	46035.34
359.808	45889.74
360.031	45771.78
360.255	45640.4
360.478	45510.14
360.701	45391.76
360.924	45277.14
361.147	45170.58
361.37	45068.58
361.593	44962.03
361.816	44857.02
362.039	44746.69
362.262	44649.05
362.485	44524.43
362.708	44397.91
362.931	44276.22
363.154	44160.36
363.377	44049.52
363.599	43922.38
363.822	43812.89
364.045	43712.16
364.268	43607.36
364.491	43506.78
364.714	43427.43
364.936	43367.91
365.159	43325.52
365.382	43300.23
365.605	43282.22
365.828	43267.22
366.05	43257.82
366.273	43236.92
366.496	43216.54
366.718	43195.74
366.941	43163.32
367.164	43102.49
367.386	43027.6
367.609	42954.92
367.832	42862.22
368.054	42758.18
368.277	42626.29
368.5	42485.6
368.722	42316.11
368.945	42134.31
369.167	41956.02
369.39	41784.4
369.612	41627.03
369.835	41478.47
370.057	41322.31
370.28	41163.56
370.502	41014.87
370.725	40897.16
370.947	40792.98
371.169	40707.56
371.392	40621.45
371.614	40547.8
371.837	40467.62
372.059	40386.36
372.281	40300.52
372.504	40221.36
372.726	40154.4
372.948	40095.69
373.171	40033.51
373.393	39996.42
373.615	39971.54
373.837	39983.6
374.06	40012.91
374.282	40068.72
374.504	40113.16
374.726	40144.32
374.948	40169.91
375.17	40174.56
375.393	40155.87
375.615	40159.74
375.837	40144.34
376.059	40146.67
376.281	40150.2
376.503	40149.83
376.725	40158.09
376.947	40187.03
377.169	40238.47
377.391	40307.89
377.613	40422.82
377.835	40591.78
378.057	40756.4
378.279	40925.87
378.501	41043.25
378.723	41080.38
378.945	41070.98
379.167	41036
379.389	41001.58
379.611	40969.34
379.833	40908.52
380.054	40797.45
380.276	40619.27
380.498	40424.07
380.72	40228.87
380.942	40098.14
381.163	40070.65
381.385	40104.69
381.607	40144.14
381.829	40155.05
382.05	40122.91
382.272	40081.27
382.494	40062.09
382.716	40069.65
382.937	40074.74
383.159	40084.91
383.381	40065.89
383.602	40006.89
383.824	39909.16
384.045	39792.71
384.267	39698.05
384.488	39629.76
384.71	39588.63
384.932	39571.22
385.153	39554.65
385.375	39541.25
385.596	39548.72
385.818	39588.14
386.039	39661.83
386.261	39772.54
386.482	39925.31
386.703	40083.42
386.925	40262.47
387.146	40450.89
387.368	40627.36
387.589	40801.51
387.81	40924.96
388.032	40951.52
388.253	40880.47
388.474	40731.45
388.696	40532.85
388.917	40320.07
389.138	40116.31
389.359	39914.94
389.581	39711.72
389.802	39524.27
390.023	39350.23
390.244	39224.54
390.465	39192.31
390.687	39271.45
390.908	39426.85
391.129	39686.4
391.35	39994.52
391.571	40356.18
391.792	40741.32
392.013	41107.72
392.234	41391.49
392.455	41571.58
392.677	41695.42
392.898	41747.67
393.119	41771.43
393.34	41777.92
393.561	41719.47
393.782	41595.25
394.003	41372.2
394.223	41075.87
394.444	40745.82
394.665	40467.78
394.886	40285.31
395.107	40178.62
395.328	40141.76
395.549	40119.85
395.77	40088.43
395.99	40076.03
396.211	40115.05
396.432	40235.18
396.653	40441.51
396.874	40743.87
397.094	41110.94
397.315	41514.94
397.536	41911.36
397.757	42227.89
397.977	42441.2
398.198	42566.27
398.419	42608.96
398.639	42581.22
398.86	42443.42
399.081	42197.8
399.301	41883.91
399.522	41517
399.742	41118.72
399.963	40731.27
400.184	40372.29
400.404	40058.16
400.625	39767.32
400.845	39517.72
401.066	39297.8
401.286	39144.11
401.507	39051.27
401.727	38966.38
401.948	38861.43
402.168	38751.29
402.388	38638.34
402.609	38558.42
402.829	38513.11
403.05	38544.71
403.27	38600.2
403.49	38693.07
403.711	38815.14
403.931	38978.63
404.151	39177.49
404.372	39407.76
404.592	39623.27
404.812	39767
405.032	39814.6
405.253	39777.83
405.473	39655.14
405.693	39470.94
405.913	39209.32
406.133	38891.02
406.353	38505.83
406.574	38082.07
406.794	37660.11
407.014	37286.09
407.234	37012.8
407.454	36862.87
407.674	36798.36
407.894	36775.76
408.114	36789.09
408.334	36820.31
408.554	36881.98
408.774	36995.25
408.994	37099.52
409.214	37157.96
409.434	37121.69
409.654	36987.25
409.874	36825.92
410.094	36672.58
410.314	36539.07
410.534	36417.63
410.754	36337.83
410.974	36284.12
411.193	36254.62
411.413	36309.89
411.633	36416.96
411.853	36598
412.073	36822.34
412.292	37017.52
412.512	37177.23
412.732	37289.47
412.952	37347.78
413.171	37331.07
413.391	37255.89
413.611	37136.62
413.831	36955.14
414.05	36761.29
414.27	36534
414.489	36290.76
414.709	36050.02
414.929	35836.54
415.148	35667.83
415.368	35553.76
415.587	35487.98
415.807	35417.87
416.026	35327.72
416.246	35229.29
416.465	35124.67
416.685	35034.09
416.904	34960.51
417.124	34887.62
417.343	34807.49
417.563	34733.29
417.782	34665.34
418.002	34627.92
418.221	34623.71
418.44	34651.63
418.66	34680.2
418.879	34708.83
419.098	34781.78
419.318	34929.65
419.537	35147.11
419.756	35426.29
419.976	35754.45
420.195	36166.2
420.414	36638.54
420.633	37155.8
420.853	37656.09
421.072	38110.51
421.291	38479.27
421.51	38759.78
421.729	38953.74
421.948	39109.12
422.168	39233.02
422.387	39298.69
422.606	39228.98
422.825	38976.11
423.044	38587.49
423.263	38137.74
423.482	37733.67
423.701	37437.89
423.92	37189.89
424.139	36964.98
424.358	36671.09
424.577	36271.6
424.796	35810.96
425.015	35341.83
425.234	34948.78
425.453	34658.54
425.672	34458.22
425.891	34346.43
426.11	34341.27
426.328	34456.03
426.547	34558.36
426.766	34636.85
426.985	34659.62
427.204	34656.56
427.422	34710.69
427.641	34819.31
427.86	34938.22
428.079	35084.05
428.297	35275.89
428.516	35473.83
428.735	35660.8
428.954	35910.11
429.172	36213.67
429.391	36596.91
429.61	37033.62
429.828	37392.54
430.047	37627.25
430.265	37709.2
430.484	37611.82
430.703	37274.96
430.921	36722.23
431.14	36027.31
431.358	35284.11
431.577	34575.52
431.795	33924.34
432.014	33337.27
432.232	32967.27
432.451	32931.2
432.669	33257.8
432.887	33731.16
433.106	34165.02
433.324	34433.85
433.543	34510.83
433.761	34558.83
433.979	34654.03
434.198	34762.45
434.416	34842.42
434.634	34755.78
434.853	34407.23
435.071	33850.54
435.289	33338.02
435.507	33015.45
435.726	32926
435.944	32992.65
436.162	33000.27
436.38	32913.69
436.598	32817.22
436.817	32752.92
437.035	32749.78
437.253	32797.54
437.471	32836.12
437.689	32816.52
437.907	32738.76
438.125	32638.12
438.343	32565.52
438.561	32548.12
438.78	32545.43
438.998	32498.58
439.216	32405.14
439.434	32300.94
439.652	32284.31
439.869	32417.32
440.087	32741.71
440.305	33228.25
440.523	33763.82
440.741	34275.58
440.959	34683.11
441.177	35011.23
441.395	35295.94
441.613	35572.45
441.831	35827.47
442.048	36001.49
442.266	36074.54
442.484	35993.54
442.702	35761.67
442.919	35489.11
443.137	35241.71
443.355	35093.42
443.573	35036.58
443.79	35056.69
444.008	35094.38
444.226	35104.54
444.443	35041.31
444.661	34879.94
444.879	34669.71
445.096	34505.58
445.314	34408.8
445.532	34346.25
445.749	34274.65
445.967	34146.05
446.184	33977.92
446.402	33805.78
446.619	33634.12
446.837	33478.54
447.054	33329.4
447.272	33155.56
447.489	32967.87
447.707	32755.74
447.924	32568.87
448.141	32414.74
448.359	32323.82
448.576	32264.31
448.794	32195.09
449.011	32137.29
449.228	32071.23
449.446	32015.23
449.663	31955.82
449.88	31831.76
450.098	31646.82
450.315	31413.32
450.532	31200.36
450.749	31003.49
450.967	30825.45
451.184	30655.09
451.401	30470.6
451.618	30284.02
451.835	30089.52
452.052	29890.96
452.27	29695.6
452.487	29533.54
452.704	29395.78
452.921	29230.38
453.138	29029.6
453.355	28806.27
453.572	28611.91
453.789	28490.63
454.006	28461.18
454.223	28493
454.44	28552.07
454.657	28602.05
454.874	28593.98
455.091	28554.85
455.308	28516.07
455.525	28519.58
455.742	28559.4
455.959	28612.72
456.176	28661.72
456.393	28684.72
456.609	28715.25
456.826	28779.6
457.043	28922.89
457.26	29141.76
457.477	29396.38
457.693	29638.05
457.91	29845.62
458.127	30014
458.344	30131.89
458.56	30211.91
458.777	30224.18
458.994	30129.89
459.21	29942.63
459.427	29669.78
459.644	29368.76
459.86	29065.09
460.077	28815.45
460.294	28571.23
460.51	28278.94
460.727	27921.92
460.943	27460.38
461.16	26996.03
461.376	26604.36
461.593	26319.78
461.809	26130.45
462.026	26007.56
462.242	25946.74
462.459	25920.51
462.675	25964.6
462.892	26100.14
463.108	26341.27
463.324	26701.78
463.541	27131.56
463.757	27571.03
463.974	27966.92
464.19	28297.27
464.406	28602.85
464.623	28839.98
464.839	28996.58
465.055	29043.94
465.271	28952.03
465.488	28705.4
465.704	28356.47
465.92	27931.18
466.136	27464.45
466.353	26995.45
466.569	26552.49
466.785	26099.74
467.001	25674.32
467.217	25257.32
467.433	24853.51
467.649	24503.49
467.865	24223.2
468.082	23973.29
468.298	23720.8
468.514	23452.94
468.73	23157.31
468.946	22846.4
469.162	22507.87
469.378	22142.69
469.594	21785.11
469.81	21466.56
470.026	21198.71
470.242	21001.09
470.457	20853.72
470.673	20765.42
470.889	20722.32
471.105	20729.29
471.321	20777.45
471.537	20874.82
471.753	21031.78
471.968	21243.2
472.184	21478.45
472.4	21712.65
472.616	21909.03
472.832	22070.47
473.047	22170.56
473.263	22247.69
473.479	22310.29
473.694	22387.89
473.91	22491.85
474.126	22595.8
474.341	22670.69
474.557	22694.16
474.773	22665.94
474.988	22629.22
475.204	22622.92
475.42	22655.98
475.635	22699.51
475.851	22711.63
476.066	22631.51
476.282	22482.52
476.497	22312.05
476.713	22180.85
476.928	22136.69
477.144	22164.45
477.359	22214.05
477.575	22209
477.79	22162.6
478.005	22104.94
478.221	22083.92
478.436	22136.85
478.651	22246.58
478.867	22368.29
479.082	22459.31
479.297	22501.91
479.513	22496.51
479.728	22479.76
479.943	22499.31
480.159	22568.27
480.374	22685.42
480.589	22821.14
480.804	22936.72
481.019	22976.2
481.235	22939.83
481.45	22813.58
481.665	22647.92
481.88	22516.47
482.095	22431.51
482.31	22394.87
482.525	22382.63
482.741	22367.29
482.956	22353.65
483.171	22403.85
483.386	22547.54
483.601	22759.36
483.816	23051.2
484.031	23508.98
484.246	24939.16
484.461	27964.82
484.676	31536.49
484.891	35082.09
485.105	38595.31
485.32	42077.34
485.535	44113.14
485.75	44773.31
485.965	44809.56
486.18	44737.02
486.395	44481.63
486.609	43184.09
486.824	40173.72
487.039	36501.67
487.254	32758.42
487.469	28985.16
487.683	25215.4
487.898	22835.62
488.113	21787.63
488.327	21348.25
488.542	20993.31
488.757	20685.03
488.972	20446.63
489.186	20272.29
489.401	20165
489.615	20113.72
489.83	20088.78
490.045	20058.02
490.259	19988.4
490.474	19857.12
490.688	19676.27
490.903	19481.72
491.117	19287.02
491.332	19109.69
491.546	18976.96
491.761	18869.34
491.975	18777.12
492.19	18683.47
492.404	18599.51
492.618	18526.32
492.833	18479.82
493.047	18449.18
493.262	18422.89
493.476	18385.12
493.69	18293
493.905	18165.36
494.119	17991.23
494.333	17790.72
494.547	17616.02
494.762	17492.62
494.976	17472.6
495.19	17548.27
495.404	17656.56
495.619	17745.56
495.833	17760.8
496.047	17719.52
496.261	17630
496.475	17545.85
496.689	17480.51
496.903	17414.65
497.117	17332.14
497.332	17205.89
497.546	17034.85
497.76	16860.67
497.974	16728.23
498.188	16673.83
498.402	16706.47
498.616	16805.56
498.83	16901.05
499.044	16963.16
499.258	16956.98
499.472	16877.45
499.685	16776.12
499.899	16677.74
500.113	16611.58
500.327	16556.12
500.541	16498
500.755	16435.78
500.969	16378.03
501.183	16349.98
501.396	16359.47
501.61	16400.69
501.824	16465.92
502.038	16525.12
502.251	16535.6
502.465	16488.31
502.679	16395.31
502.892	16265.05
503.106	16105.34
503.32	15929
503.533	15748.94
503.747	15577.36
503.961	15439.78
504.174	15324.16
504.388	15190
504.602	15055.29
504.815	14930.22
505.029	14839.54
505.242	14800.34
505.456	14805.27
505.669	14794.83
505.883	14748.78
506.096	14651.22
506.31	14515.51
506.523	14383.62
506.736	14282.18
506.95	14216.96
507.163	14160.45
507.377	14098.09
507.59	14012.98
507.803	13899.43
508.017	13792.45
508.23	13723.8
508.443	13700.09
508.657	13700.07
508.87	13687.67
509.083	13656.31
509.296	13603.42
509.51	13541.8
509.723	13477.85
509.936	13431.83
510.149	13416.91
510.363	13430.03
510.576	13443.14
510.789	13436.65
511.002	13411.14
511.215	13362.51
511.428	13303.45
511.641	13247.43
511.854	13194.03
512.067	13138.89
512.28	13071.98
512.493	12988.91
512.707	12902.32
512.92	12827.94
513.132	12774.27
513.345	12730.74
513.558	12698.91
513.771	12645.8
513.984	12563.89
514.197	12475.58
514.41	12392.94
514.623	12335.82
514.836	12298.07
515.049	12280.58
515.262	12247.82
515.474	12222.69
515.687	12201.6
515.9	12174.87
516.113	12148.42
516.325	12125.42
516.538	12091.98
516.751	12050.76
516.964	11988.89
517.176	11916.29
517.389	11835.2
517.602	11796.12
517.814	11761.65
518.027	11752.34
518.24	11760.89
518.452	11780.11
518.665	11784.85
518.877	11765.56
519.09	11712.32
519.303	11638.83
519.515	11555.58
519.728	11484.98
519.94	11411.42
520.153	11336.49
520.365	11240.76
520.578	11116.92
520.79	10984.32
521.002	10864.4
521.215	10773.54
521.427	10721.4
521.64	10702
521.852	10696.94
522.064	10679.12
522.277	10638.67
522.489	10596.25
522.701	10557.25
522.914	10548.36
523.126	10555.07
523.338	10573.14
523.551	10589.94
523.763	10589.96
523.975	10573.31
524.187	10544.83
524.399	10517.83
524.612	10502.11
524.824	10480.07
525.036	10454.78
525.248	10420.29
525.46	10397.4
525.672	10387.94
525.884	10389.51
526.096	10398.56
526.308	10404.96
526.521	10407.07
526.733	10384.69
526.945	10351.18
527.157	10337.54
527.369	10355.78
527.581	10406.51
527.793	10477.11
528.004	10532.05
528.216	10564.09
528.428	10583.2
528.64	10583.72
528.852	10587.72
529.064	10607.67
529.276	10619.25
529.488	10601.05
529.699	10544.34
529.911	10442.25
530.123	10305.52
530.335	10192
530.547	10100.27
530.758	10035.89
530.97	9992.87
531.182	9960.43
531.393	9943.45
531.605	9962.03
531.817	10029.38
532.029	10139.38
532.24	10299.49
532.452	10477.76
532.663	10640.14
532.875	10791.6
533.087	10924.11
533.298	11056.87
533.51	11196.56
533.721	11319.45
533.933	11425.32
534.144	11484.8
534.356	11488.36
534.567	11437.03
534.779	11346
534.99	11226.56
535.202	11095.02
535.413	10946.6
535.624	10784.47
535.836	10610.96
536.047	10459.96
536.259	10325.25
536.47	10222.31
536.681	10180.47
536.893	10177.76
537.104	10215.89
537.315	10284.16
537.526	10380.89
537.738	10503.14
537.949	10647.63
538.16	10787.63
538.371	10905.58
538.582	10983.12
538.794	11009.22
539.005	10964.45
539.216	10901.76
539.427	10834.83
539.638	10785.6
539.849	10751.85
540.06	10721.43
540.272	10687.56
540.483	10665.74
540.694	10654.96
540.905	10668.32
541.116	10726.11
541.327	10802.47
541.538	10873.71
541.749	10919.34
541.96	10934.34
542.17	10923.22
542.381	10931.03
542.592	10956.78
542.803	10996
543.014	11034.18
543.225	11058.43
543.436	11065.83
543.647	11076.67
543.857	11072.6
544.068	11064.32
544.279	11034.23
544.49	10972.03
544.701	10869.22
544.911	10736.47
545.122	10581.82
545.333	10426.32
545.543	10291.14
545.754	10177.34
545.965	10098.65
546.175	10071.31
546.386	10121.25
546.597	10251.58
546.807	10441.52
547.018	10645.32
547.229	10846.83
547.439	11007.14
547.65	11110.07
547.86	11148.96
548.071	11126.03
548.281	11057.65
548.492	10949.98
548.702	10798.18
548.913	10608.25
549.123	10382.32
549.333	10161.2
549.544	9936.47
549.754	9734.23
549.965	9569.74
550.175	9447.96
550.385	9402.96
550.596	9427.2
550.806	9507.65
551.016	9616.42
551.227	9712.14
551.437	9796.36
551.647	9847.71
551.857	9895.92
552.068	9962.82
552.278	10059.56
552.488	10164.2
552.698	10229.14
552.908	10220.32
553.119	10119.94
553.329	9950.14
553.539	9783.34
553.749	9659.49
553.959	9606.49
554.169	9617.56
554.379	9652.74
554.589	9683.62
554.799	9714.12
555.009	9728.65
555.219	9729.87
555.429	9743.42
555.639	9758.45
555.849	9761.58
556.059	9750.43
556.269	9717.72
556.479	9656.02
556.689	9582.6
556.899	9480.29
557.109	9349.42
557.319	9211.03
557.528	9085.09
557.738	8982.49
557.948	8909.43
558.158	8864.85
558.368	8836.69
558.577	8839.56
558.787	8876.29
558.997	8945
559.207	9071.83
559.416	9242.83
559.626	9446.03
559.836	9673.71
560.045	9889.14
560.255	10069.78
560.465	10216.74
560.674	10315.56
560.884	10350.25
561.093	10328.29
561.303	10259.91
561.512	10154.36
561.722	10045.87
561.932	9952.29
562.141	9860.14
562.351	9794.63
562.56	9783.02
562.769	9810.25
562.979	9879.52
563.188	9968.98
563.398	10072.34
563.607	10179.65
563.817	10287.69
564.026	10378.32
564.235	10434.43
564.445	10476.02
564.654	10507.2
564.863	10515.69
565.073	10531.25
565.282	10560.89
565.491	10633.05
565.7	10792.52
565.91	11042.91
566.119	11354.6
566.328	11716.94
566.537	12082.03
566.746	12459
566.956	12868.12
567.165	13332.83
567.374	13855.78
567.583	14422.31
567.792	15045.92
568.001	15735.29
568.21	16509.27
568.419	17389.18
568.628	18349.02
568.837	19299.31
569.046	20197.72
569.255	21017.83
569.464	21817.29
569.673	22656.14
569.882	23513.2
570.091	24368.42
570.3	25137.07
570.509	25788.78
570.718	26259.23
570.927	26523.58
571.135	26588.25
571.344	26473.14
571.553	26382.51
571.762	26371.11
571.971	26525.16
572.18	26880.58
572.388	27295.23
572.597	27764.47
572.806	28228.47
573.014	28716.51
573.223	29304.11
573.432	30075.47
573.641	31032.63
573.849	31923.09
574.058	32585.76
574.266	32823.05
574.475	32620.29
574.684	32261.98
574.892	31877.2
575.101	31575.83
575.309	31505.49
575.518	31514.91
575.726	31593.87
575.935	31881.71
576.143	32485.51
576.352	33521.69
576.56	34990.71
576.769	36605.07
576.977	37972.8
577.186	38862.34
577.394	39193.92
577.602	38972.11
577.811	38515.71
578.019	38065.96
578.228	37580.82
578.436	37046.52
578.644	36393.82
578.852	35529.85
579.061	34667.09
579.269	33934.83
579.477	33455.96
579.685	33611.92
579.894	34702.4
580.102	36618.12
580.31	39105.4
580.518	41701.98
580.726	43856.65
580.935	45370.4
581.143	46221.78
581.351	46497.18
581.559	46389.56
581.767	45966.71
581.975	45012.05
582.183	43220.98
582.391	40684.2
582.599	37663.92
582.807	34616.69
583.015	32088.29
583.223	30214.85
583.431	29143.36
583.639	28829.29
583.847	29161.18
584.055	30025.74
584.263	31144.23
584.471	32293.09
584.678	33238.72
584.886	33743.22
585.094	33759.67
585.302	33376.83
585.51	32860.63
585.718	32290.14
585.925	31781.12
586.133	31348.09
586.341	30880.91
586.549	30428.03
586.756	30008.29
586.964	29692.02
587.172	29578.23
587.379	29613.07
587.587	29632.45
587.795	29339.07
588.002	28695.72
588.21	27729.14
588.417	26542.69
588.625	25341.94
588.833	24198
589.04	23160.98
589.248	22206.18
589.455	21290.51
589.663	20430.62
589.87	19691.05
590.078	19185.32
590.285	18890.85
590.492	18684.85
590.7	18446.4
590.907	18218.65
591.115	18233.85
591.322	18671.36
591.529	19554.36
591.737	20728.62
591.944	21950.98
592.151	23046.4
592.359	23943.54
592.566	24602.25
592.773	25055.38
592.981	25357.03
593.188	25600.8
593.395	25725.94
593.602	25705.18
593.809	25502.71
594.017	25086.03
594.224	24600.11
594.431	24084.16
594.638	23562.29
594.845	23095.69
595.052	22687.65
595.259	22344.63
595.466	21988.11
595.673	21533.27
595.88	20925.03
596.088	20249.11
596.295	19599.8
596.502	19013.23
596.709	18556.22
596.915	18203.07
597.122	18056.45
597.329	18281.45
597.536	18884.96
597.743	19668.52
597.95	20406.36
598.157	20877.34
598.364	21081.11
598.571	21211.14
598.777	21422.07
598.984	21739.67
599.191	22136.34
599.398	22477.05
599.605	22605.94
599.811	22484.05
600.018	22157.23
600.225	21798.4
600.431	21555.98
600.638	21381.89
600.845	21214.03
601.052	21028.94
601.258	20831.62
601.465	20723.02
601.671	20750.22
601.878	20867.69
602.085	21050.72
602.291	21253.03
602.498	21382.6
602.704	21378.62
602.911	21265.98
603.117	21026.67
603.324	20657.2
603.53	20229.6
603.737	19770.27
603.943	19234.65
604.15	18687.85
604.356	18169.69
604.562	17676.07
604.769	17210.38
604.975	16839.4
605.181	16530.12
605.388	16318.54
605.594	16229.14
605.8	16212.18
606.007	16153.45
606.213	16014.16
606.419	15727.78
606.625	15253.09
606.832	14723
607.038	14239.56
607.244	13850.18
607.45	13589.94
607.656	13350.72
607.863	13015.22
608.069	12580.78
608.275	12196.78
608.481	11964.23
608.687	11876.65
608.893	11871.29
609.099	11846.42
609.305	11758.05
609.511	11612.92
609.717	11445.76
609.923	11334.74
610.129	11288.72
610.335	11294.36
610.541	11230.76
610.747	10957.62
610.953	10523.94
611.159	10088.22
611.365	9745.52
611.571	9535.85
611.776	9385.83
611.982	9208.85
612.188	8999.09
612.394	8801.94
612.6	8607.03
612.806	8428.05
613.011	8309.42
613.217	8218.96
613.423	8093.4
613.628	7936.89
613.834	7763.29
614.04	7621.54
614.246	7533.38
614.451	7411.91
614.657	7213.56
614.862	6961.67
615.068	6678.07
615.274	6409.43
615.479	6184.56
615.685	6000.8
615.89	5830.71
616.096	5647.89
616.301	5444.52
616.507	5221.87
616.712	5039.22
616.918	4898
617.123	4774.42
617.329	4653.98
617.534	4519.69
617.74	4373.52
617.945	4216.98
618.15	4054.05
618.356	3846.18
618.561	3493.31
618.766	3074.32
618.972	2643.87
619.177	2241.67
619.382	1878.09
619.588	1552.8
619.793	1371.11
619.998	1154.92
620.203	890.61
620.408	558.8
620.614	211.4
