Data from blue3_MAYP1115451__0__12-02-25-357.txt Node

Date: Thu May 30 12:02:25 MDT 2024
User: Modes Lab
Spectrometer: MAYP111545
Trigger mode: 0
Integration Time (sec): 7.200000E-3
Scans to average: 5
Electric dark correction enabled: true
Nonlinearity correction enabled: false
Boxcar width: 5
XAxis mode: Wavelengths
Number of Pixels in Spectrum: 2068
>>>>>Begin Spectral Data<<<<<
165.214	5331.57
165.449	4588.34
165.683	4043.08
165.918	3620.93
166.152	3281.54
166.387	3004.44
166.621	111.31
166.856	148.76
167.09	165.96
167.325	187.65
167.559	203.4
167.794	217.76
168.028	226.98
168.263	227.35
168.497	227.25
168.732	227.95
168.966	228.24
169.2	229.53
169.435	230.69
169.669	231.6
169.903	232.36
170.138	234.36
170.372	235.18
170.606	234.87
170.841	234.95
171.075	234.11
171.309	233.8
171.544	233.15
171.778	233.64
172.012	233.91
172.246	233.82
172.48	233.95
172.715	234.65
172.949	235.02
173.183	236.22
173.417	237.02
173.651	238.09
173.885	238.96
174.119	239.6
174.354	239.05
174.588	238.58
174.822	238.04
175.056	238.09
175.29	238
175.524	238.42
175.758	238.33
175.992	238.78
176.226	238.6
176.46	238.45
176.694	239.13
176.928	240.07
177.162	241.22
177.396	242.75
177.63	244.45
177.864	243.76
178.097	244.36
178.331	244.69
178.565	245.31
178.799	246.69
179.033	247.27
179.267	248.31
179.5	248.85
179.734	248.87
179.968	249.95
180.202	249.56
180.436	251.04
180.669	251.98
180.903	254.07
181.137	255.58
181.371	256.6
181.604	257.78
181.838	259.47
182.072	261.85
182.305	265.04
182.539	266.96
182.772	269.67
183.006	273.58
183.24	276.8
183.473	281.82
183.707	285.42
183.94	289.67
184.174	296.04
184.408	301.69
184.641	307.07
184.875	312.53
185.108	320.11
185.342	326.47
185.575	334.05
185.808	343.33
186.042	352
186.275	361.93
186.509	371.96
186.742	382.47
186.976	391.78
187.209	401.18
187.442	411.49
187.676	422.05
187.909	436.58
188.142	449.33
188.376	460.85
188.609	470.6
188.842	480.36
189.076	491.73
189.309	502.16
189.542	513.69
189.775	529.78
190.009	545.36
190.242	561.35
190.475	573.91
190.708	585.89
190.941	599.53
191.174	613.69
191.408	629.31
191.641	646.45
191.874	665.18
192.107	686.22
192.34	703.84
192.573	722.24
192.806	739.09
193.039	757.96
193.272	779.78
193.505	802.91
193.738	824.98
193.971	849.2
194.204	873.38
194.437	898.58
194.67	923.09
194.903	950.49
195.136	979.18
195.369	1010.8
195.602	1043.55
195.835	1079.91
196.068	1115.55
196.301	1157.18
196.533	1199.16
196.766	1241.84
196.999	1288.04
197.232	1336.49
197.465	1386.2
197.698	1440.69
197.93	1494.47
198.163	1550.96
198.396	1606.91
198.629	1668.02
198.861	1730.62
199.094	1794.33
199.327	1858.45
199.559	1922.62
199.792	1988.87
200.025	2057.4
200.257	2124.71
200.49	2197.33
200.723	2269.98
200.955	2344.35
201.188	2419.42
201.42	2493.98
201.653	2571.15
201.886	2647.31
202.118	2726.6
202.351	2804.55
202.583	2888.15
202.816	2969.2
203.048	3050.18
203.281	3133.42
203.513	3219.42
203.745	3305.65
203.978	3393.31
204.21	3483.93
204.443	3576.49
204.675	3667.24
204.907	3762.64
205.14	3854.22
205.372	3949.2
205.605	4044.56
205.837	4142.51
206.069	4239.16
206.302	4339.38
206.534	4444.07
206.766	4547.84
206.998	4657.29
207.231	4767.24
207.463	4878.42
207.695	4993.49
207.927	5115.82
208.159	5234.84
208.392	5355.11
208.624	5480.22
208.856	5607.36
209.088	5734.95
209.32	5867.71
209.552	6003.24
209.784	6143.16
210.017	6282.07
210.249	6424.95
210.481	6567.98
210.713	6719.96
210.945	6872.24
211.177	7028.6
211.409	7187.05
211.641	7346.13
211.873	7512.4
212.105	7680.13
212.337	7853.45
212.569	8030.71
212.801	8212.78
213.033	8394.55
213.264	8584.95
213.496	8784.53
213.728	8990.38
213.96	9197.55
214.192	9415.13
214.424	9629.64
214.656	9849.47
214.887	10073.16
215.119	10303.36
215.351	10538.29
215.583	10783.16
215.815	11031.25
216.046	11283.15
216.278	11536.85
216.51	11796.22
216.741	12060.98
216.973	12333.8
217.205	12616.16
217.436	12893.13
217.668	13178.73
217.9	13470
218.131	13767.15
218.363	14069.27
218.595	14379.71
218.826	14695.62
219.058	15018.56
219.289	15341.2
219.521	15661.53
219.752	15984.4
219.984	16327.98
220.215	16675.56
220.447	17022.33
220.678	17373.38
220.91	17729.55
221.141	18093.64
221.373	18452.58
221.604	18816.29
221.836	19185.22
222.067	19572.87
222.298	19964.31
222.53	20360.85
222.761	20762.2
222.993	21169.87
223.224	21583.25
223.455	21998.04
223.686	22408.96
223.918	22835.05
224.149	23265.05
224.38	23699.16
224.612	24135.05
224.843	24572.22
225.074	25014.07
225.305	25451.29
225.536	25892.47
225.768	26330.82
225.999	26764.73
226.23	27201.15
226.461	27638.84
226.692	28076.91
226.923	28503.45
227.155	28936.04
227.386	29363.24
227.617	29782.55
227.848	30211.8
228.079	30635.8
228.31	31059.44
228.541	31489.15
228.772	31908.49
229.003	32329.91
229.234	32748.04
229.465	33168.02
229.696	33579.95
229.927	33994.82
230.158	34406.13
230.389	34813.69
230.62	35215.58
230.85	35629.56
231.081	36028.73
231.312	36430.78
231.543	36819.22
231.774	37204.93
232.005	37603.02
232.236	38000.53
232.466	38386.18
232.697	38777.58
232.928	39150.44
233.159	39522.71
233.389	39869.67
233.62	40215.04
233.851	40550.25
234.082	40888.16
234.312	41218
234.543	41527.65
234.774	41829.29
235.004	42114.47
235.235	42377.8
235.466	42656.76
235.696	42924.38
235.927	43182.11
236.157	43437.93
236.388	43705.04
236.618	43957.15
236.849	44197.67
237.08	44440.11
237.31	44656.98
237.541	44881.55
237.771	45108.69
238.002	45327.09
238.232	45536.02
238.463	45747.04
238.693	45965.16
238.923	46165.22
239.154	46349.75
239.384	46526.4
239.615	46693.6
239.845	46874.78
240.075	47055.47
240.306	47223.15
240.536	47372
240.766	47520.38
240.997	47664.58
241.227	47803.62
241.457	47940.05
241.687	48073.15
241.918	48225.87
242.148	48378.78
242.378	48521.62
242.608	48657.02
242.839	48787.71
243.069	48927.24
243.299	49055.95
243.529	49187.16
243.759	49299.25
243.989	49423.38
244.22	49556.53
244.45	49677.35
244.68	49793.13
244.91	49900.36
245.14	50005.45
245.37	50111.2
245.6	50200.13
245.83	50320.96
246.06	50439.62
246.29	50553.45
246.52	50647.75
246.75	50747.04
246.98	50845.05
247.21	50946.93
247.44	51049.76
247.67	51158.42
247.9	51271.65
248.13	51384.45
248.359	51472.84
248.589	51565.85
248.819	51671.45
249.049	51777.22
249.279	51874.96
249.509	51969.38
249.738	52046.65
249.968	52125.75
250.198	52197.95
250.428	52270.78
250.657	52361.53
250.887	52444.42
251.117	52518.58
251.347	52597.73
251.576	52673.15
251.806	52746.44
252.036	52811.91
252.265	52887.67
252.495	52966.6
252.725	53043.16
252.954	53106.47
253.184	53161.96
253.413	53223.96
253.643	53281.25
253.873	53326.93
254.102	53376.25
254.332	53434.55
254.561	53486.47
254.791	53539.95
255.02	53593.25
255.25	53652.16
255.479	53717.84
255.708	53774.44
255.938	53821.45
256.167	53875.29
256.397	53928.96
256.626	53961.15
256.856	53986.69
257.085	54021.95
257.314	54043.93
257.544	54065.38
257.773	54082.58
258.002	54092.07
258.232	54111.53
258.461	54153.85
258.69	54185.85
258.919	54213.49
259.149	54261.78
259.378	54303.73
259.607	54342.16
259.836	54402.15
260.065	54454.53
260.295	54492.98
260.524	54538.42
260.753	54581.84
260.982	54609.24
261.211	54648.4
261.44	54684.25
261.669	54716.2
261.899	54753.58
262.128	54788.33
262.357	54812.82
262.586	54830.96
262.815	54861.18
263.044	54899.85
263.273	54918.56
263.502	54936.31
263.731	54940.07
263.96	54945.44
264.189	54960.87
264.418	54966.49
264.646	54976.67
264.875	54999.98
265.104	55022.62
265.333	55031.85
265.562	55029.71
265.791	55042.67
266.02	55055.24
266.249	55071.91
266.477	55088.87
266.706	55112.64
266.935	55129.24
267.164	55159.98
267.393	55173.51
267.621	55204.18
267.85	55246.78
268.079	55280.56
268.307	55315.25
268.536	55346.93
268.765	55382
268.993	55430.71
269.222	55460.71
269.451	55505.62
269.679	55545.56
269.908	55585.49
270.137	55610.93
270.365	55659.25
270.594	55714.56
270.822	55760.56
271.051	55820.13
271.279	55889.98
271.508	55952.64
271.736	56020.8
271.965	56078
272.193	56135.29
272.422	56196.6
272.65	56278.4
272.879	56344.13
273.107	56421.4
273.336	56499.85
273.564	56562.24
273.792	56613.58
274.021	56682.87
274.249	56753.85
274.477	56836.4
274.706	56919.42
274.934	57006.36
275.162	57093.73
275.391	57185.13
275.619	57278.8
275.847	57354.29
276.075	57478.22
276.304	57601.71
276.532	57712.07
276.76	57828.71
276.988	57939.67
277.216	58052.29
277.445	58155.84
277.673	58257.16
277.901	58358.62
278.129	58437.56
278.357	58546.05
278.585	58626.07
278.813	58707.49
279.041	58806.98
279.269	58892.11
279.497	58997.82
279.725	59093.42
279.954	59206.07
280.182	59309.24
280.41	59411.67
280.637	59528.24
280.865	59639.11
281.093	59742.87
281.321	59847.6
281.549	59933.42
281.777	60034.58
282.005	60109.36
282.233	60205.36
282.461	60284.18
282.689	60364.93
282.916	60451.27
283.144	60537.15
283.372	60635.49
283.6	60731.93
283.828	60816.4
284.055	60899.45
284.283	60974.36
284.511	61058.6
284.739	61117.95
284.966	61177.53
285.194	61228.18
285.422	61263.09
285.649	61294.29
285.877	61309.85
286.105	61319.36
286.332	61334.25
286.56	61341.58
286.788	61343.8
287.015	61343.8
287.243	61343.8
287.47	61343.8
287.698	61343.8
287.925	61343.8
288.153	61343.8
288.381	61343.8
288.608	61343.8
288.836	61343.8
289.063	61343.8
289.29	61343.8
289.518	61343.8
289.745	61343.8
289.973	61343.8
290.2	61343.8
290.428	61343.8
290.655	61343.8
290.882	61343.8
291.11	61343.8
291.337	61343.8
291.564	61343.8
291.792	61343.8
292.019	61343.8
292.246	61343.8
292.473	61343.8
292.701	61343.8
292.928	61343.8
293.155	61343.8
293.382	61343.8
293.61	61343.8
293.837	61343.8
294.064	61343.8
294.291	61343.8
294.518	61343.8
294.745	61343.8
294.972	61343.8
295.2	61343.8
295.427	61343.8
295.654	61343.8
295.881	61343.8
296.108	61343.8
296.335	61343.8
296.562	61343.8
296.789	61343.8
297.016	61343.8
297.243	61343.8
297.47	61343.8
297.697	61343.8
297.924	61343.8
298.151	61343.8
298.378	61343.8
298.604	61343.8
298.831	61343.8
299.058	61343.8
299.285	61343.8
299.512	61343.8
299.739	61343.8
299.966	61343.8
300.192	61343.8
300.419	61343.8
300.646	61343.8
300.873	61343.8
301.099	61343.8
301.326	61343.8
301.553	61343.8
301.78	61343.8
302.006	61343.8
302.233	61343.8
302.46	61343.8
302.686	61343.8
302.913	61343.8
303.14	61343.8
303.366	61343.8
303.593	61343.8
303.819	61343.8
304.046	61343.8
304.272	61343.8
304.499	61343.8
304.725	61343.8
304.952	61343.8
305.179	61343.8
305.405	61343.8
305.631	61343.8
305.858	61343.8
306.084	61343.8
306.311	61343.8
306.537	61343.8
306.764	61343.8
306.99	61343.8
307.216	61343.8
307.443	61343.8
307.669	61343.8
307.895	61343.8
308.122	61343.8
308.348	61343.8
308.574	61343.8
308.801	61343.11
309.027	61339.07
309.253	61333.91
309.479	61318.65
309.706	61303.07
309.932	61286.75
310.158	61271.07
310.384	61251.35
310.61	61222.75
310.837	61179.04
311.063	61137.18
311.289	61093.62
311.515	61044.89
311.741	60997.85
311.967	60948
312.193	60901.11
312.419	60841.36
312.645	60768.24
312.871	60698.13
313.097	60635.44
313.323	60600.27
313.549	60546.22
313.775	60494.87
314.001	60448.44
314.227	60392.13
314.453	60328.76
314.679	60264.24
314.905	60215.27
315.131	60168.35
315.357	60120.87
315.583	60064.13
315.809	59995.56
316.034	59939.8
316.26	59889.85
316.486	59842.42
316.712	59803.87
316.938	59772.95
317.163	59733.25
317.389	59687.42
317.615	59651.51
317.841	59611.73
318.066	59585.15
318.292	59564.15
318.518	59532.47
318.743	59502.04
318.969	59469.67
319.195	59437.47
319.42	59412.71
319.646	59393.05
319.872	59382.42
320.097	59360.6
320.323	59329.65
320.548	59308.36
320.774	59282.35
320.999	59269.98
321.225	59248.65
321.45	59230.75
321.676	59209.69
321.901	59199.2
322.127	59203.25
322.352	59191.07
322.578	59197.84
322.803	59212.04
323.029	59203.84
323.254	59199.15
323.479	59188.8
323.705	59194.75
323.93	59191.64
324.155	59197.53
324.381	59186.69
324.606	59164.36
324.831	59151.15
325.057	59128.98
325.282	59107.4
325.507	59100.31
325.732	59083.35
325.958	59067.02
326.183	59029.07
326.408	59002.95
326.633	58955.47
326.858	58920.96
327.084	58885.58
327.309	58850.4
327.534	58820.49
327.759	58798.91
327.984	58767.35
328.209	58739.87
328.434	58720.8
328.659	58713.98
328.884	58698.25
329.109	58692.02
329.334	58676.16
329.559	58660.04
329.784	58625.69
330.009	58591.55
330.234	58545.29
330.459	58496.25
330.684	58441.75
330.909	58380.84
331.134	58303.89
331.359	58225.93
331.584	58152.76
331.809	58086.35
332.034	58019.78
332.259	57963.75
332.483	57893.56
332.708	57816.2
332.933	57747.84
333.158	57688.96
333.383	57626.91
333.607	57574.11
333.832	57516.42
334.057	57458.13
334.282	57401.95
334.506	57344.04
334.731	57274.53
334.956	57217.38
335.18	57174.56
335.405	57113.91
335.63	57042.6
335.854	56962.82
336.079	56881.56
336.303	56800.2
336.528	56717.76
336.753	56619.87
336.977	56516.84
337.202	56433.31
337.426	56339.11
337.651	56238.44
337.875	56157.31
338.1	56059.98
338.324	55982.96
338.549	55894.93
338.773	55811.11
338.997	55727.16
339.222	55653.85
339.446	55584.98
339.671	55500.47
339.895	55432.55
340.119	55356.51
340.344	55276.02
340.568	55212.16
340.792	55133
341.017	55051.78
341.241	54972.51
341.465	54877.53
341.689	54777.71
341.914	54674.31
342.138	54575.25
342.362	54452.73
342.586	54348.47
342.811	54226.04
343.035	54103.31
343.259	53973.71
343.483	53858.76
343.707	53745.55
343.931	53629.78
344.155	53525.73
344.38	53420.35
344.604	53319.27
344.828	53223.16
345.052	53125.16
345.276	53025.15
345.5	52922.33
345.724	52836.58
345.948	52749.07
346.172	52658.67
346.396	52571.45
346.62	52481.69
346.844	52374.53
347.068	52255.16
347.292	52135.93
347.515	51995.98
347.739	51867.24
347.963	51735.87
348.187	51606.05
348.411	51459.02
348.635	51318.16
348.859	51174.89
349.082	51024.2
349.306	50888.73
349.53	50771.22
349.754	50647.29
349.977	50533.75
350.201	50425.76
350.425	50316.2
350.649	50180.11
350.872	50061
351.096	49934.64
351.32	49814.65
351.543	49682.22
351.767	49549.15
351.99	49405.51
352.214	49269.96
352.438	49129.73
352.661	48979.09
352.885	48834.45
353.108	48706.44
353.332	48567.89
353.555	48427.58
353.779	48279.95
354.002	48143.31
354.226	48001.25
354.449	47866.64
354.673	47727.09
354.896	47587.96
355.12	47458.33
355.343	47321.64
355.566	47188.84
355.79	47062.18
356.013	46922.47
356.237	46790.05
356.46	46662
356.683	46541.4
356.907	46410.82
357.13	46278.87
357.353	46146.18
357.576	46014.62
357.8	45885.09
358.023	45743.64
358.246	45596.53
358.469	45456.85
358.693	45325.64
358.916	45174.67
359.139	45035.62
359.362	44896.42
359.585	44757.55
359.808	44621.84
360.031	44494.62
360.255	44363.11
360.478	44241.25
360.701	44114.93
360.924	44007.04
361.147	43896.8
361.37	43798.58
361.593	43682.93
361.816	43565.51
362.039	43444.29
362.262	43330.71
362.485	43205.15
362.708	43079.95
362.931	42956.18
363.154	42843.58
363.377	42723.13
363.599	42593.09
363.822	42468.58
364.045	42346.29
364.268	42233.96
364.491	42149.75
364.714	42061.36
364.936	41986.36
365.159	41939.73
365.382	41905.84
365.605	41863.38
365.828	41823.69
366.05	41799.84
366.273	41775.95
366.496	41762.91
366.718	41731.76
366.941	41675.38
367.164	41614.18
367.386	41537.62
367.609	41443.8
367.832	41339.29
368.054	41230.71
368.277	41100.4
368.5	40949.87
368.722	40773.56
368.945	40586.16
369.167	40402.95
369.39	40230.82
369.612	40056
369.835	39890.18
370.057	39725.4
370.28	39568.84
370.502	39418.38
370.725	39287.33
370.947	39160.11
371.169	39065.49
371.392	38964.84
371.614	38869.76
371.837	38779.27
372.059	38690.31
372.281	38603.73
372.504	38513.05
372.726	38422
372.948	38336.65
373.171	38262.73
373.393	38209.67
373.615	38162.51
373.837	38146.15
374.06	38157.05
374.282	38175.15
374.504	38195
374.726	38205.18
374.948	38202.51
375.17	38175.96
375.393	38154.31
375.615	38127.02
375.837	38116.35
376.059	38103.2
376.281	38077.53
376.503	38058.13
376.725	38045.55
376.947	38053.51
377.169	38066.73
377.391	38108.58
377.613	38180.64
377.835	38292.67
378.057	38430.76
378.279	38542.91
378.501	38614.35
378.723	38625.91
378.945	38589.07
379.167	38527.36
379.389	38473.18
379.611	38421.16
379.833	38342.53
380.054	38239.11
380.276	38058.67
380.498	37846.93
380.72	37646.25
380.942	37503.62
381.163	37460.15
381.385	37470.82
381.607	37481.27
381.829	37455.6
382.05	37404.8
382.272	37334.95
382.494	37270.78
382.716	37247.38
382.937	37233.33
383.159	37215.96
383.381	37176.73
383.602	37100.35
383.824	36991.25
384.045	36872.96
384.267	36774.64
384.488	36691.73
384.71	36644.58
384.932	36609.24
385.153	36577.16
385.375	36548.15
385.596	36541.45
385.818	36550.98
386.039	36588.09
386.261	36664.98
386.482	36768.95
386.703	36891.75
386.925	37024.11
387.146	37171.2
387.368	37317.71
387.589	37460.29
387.81	37548.16
388.032	37560.4
388.253	37479.65
388.474	37331.89
388.696	37141.55
388.917	36955.55
389.138	36756.82
389.359	36571.62
389.581	36388.93
389.802	36206.02
390.023	36027.64
390.244	35906.78
390.465	35861.89
390.687	35928.27
390.908	36072.78
391.129	36282.93
391.35	36543.25
391.571	36872.42
391.792	37219.2
392.013	37531.47
392.234	37769.65
392.455	37935.2
392.677	38024.04
392.898	38056.58
393.119	38062.07
393.34	38054.65
393.561	37996.35
393.782	37873.62
394.003	37641.33
394.223	37338.55
394.444	37023.38
394.665	36777.76
394.886	36600.36
395.107	36492.31
395.328	36445.44
395.549	36410.98
395.77	36362.07
395.99	36334.89
396.211	36350.8
396.432	36447.33
396.653	36622.6
396.874	36874.64
397.094	37179.64
397.315	37521.27
397.536	37858.42
397.757	38118.56
397.977	38288.98
398.198	38367.15
398.419	38379.29
398.639	38318.73
398.86	38171.29
399.081	37936.18
399.301	37639.11
399.522	37280.38
399.742	36900.07
399.963	36531.75
400.184	36192.96
400.404	35880.64
400.625	35618.33
400.845	35382.56
401.066	35170.76
401.286	35006.84
401.507	34891.38
401.727	34786.67
401.948	34678.69
402.168	34548.31
402.388	34429.2
402.609	34340.71
402.829	34297.55
403.05	34290.02
403.27	34323.51
403.49	34383.02
403.711	34461.07
403.931	34576.49
404.151	34728.27
404.372	34899.47
404.592	35074.02
404.812	35170.05
405.032	35185.51
405.253	35122.36
405.473	34995.85
405.693	34790.96
405.913	34555.18
406.133	34266.47
406.353	33912.42
406.574	33522.02
406.794	33143.85
407.014	32797.22
407.234	32551.33
407.454	32410.35
407.674	32354.02
407.894	32335.49
408.114	32353.29
408.334	32367.58
408.554	32423.84
408.774	32532.85
408.994	32635.84
409.214	32686.18
409.434	32657.62
409.654	32549.11
409.874	32403.82
410.094	32265.47
410.314	32163.09
410.534	32073.42
410.754	32020.56
410.974	31981.82
411.193	31971.02
411.413	32034.95
411.633	32158.18
411.853	32341.89
412.073	32554.8
412.292	32759.56
412.512	32925.29
412.732	33040.53
412.952	33106.78
413.171	33118.73
413.391	33086.75
413.611	33010.95
413.831	32883.42
414.05	32722.87
414.27	32557.87
414.489	32379.44
414.709	32192.33
414.929	32032.02
415.148	31914.4
415.368	31852.62
415.587	31817.49
415.807	31773.47
416.026	31714.31
416.246	31648.35
416.465	31603.53
416.685	31546.33
416.904	31507.91
417.124	31477.38
417.343	31438.47
417.563	31406.49
417.782	31381.2
418.002	31369.82
418.221	31407.04
418.44	31467.73
418.66	31533.96
418.879	31590.98
419.098	31688.2
419.318	31847.89
419.537	32075.18
419.756	32366.16
419.976	32706.53
420.195	33115.45
420.414	33604.42
420.633	34124.04
420.853	34624.73
421.072	35063.87
421.291	35441.56
421.51	35744.29
421.729	35963.96
421.948	36148.49
422.168	36298.18
422.387	36386.8
422.606	36339.98
422.825	36143.93
423.044	35804.73
423.263	35426.45
423.482	35103
423.701	34855.02
423.92	34661.38
424.139	34497.02
424.358	34255.2
424.577	33920.73
424.796	33514.24
425.015	33126.47
425.234	32783.58
425.453	32544.84
425.672	32388
425.891	32297.27
426.11	32323.24
426.328	32443.25
426.547	32573.44
426.766	32667.38
426.985	32715.49
427.204	32745.31
427.422	32824.04
427.641	32954.22
427.86	33101.25
428.079	33268.45
428.297	33480.2
428.516	33696.87
428.735	33912.02
428.954	34149.69
429.172	34467.56
429.391	34859.67
429.61	35291.82
429.828	35648.38
430.047	35883.71
430.265	35978.73
430.484	35890.09
430.703	35584.75
430.921	35073.96
431.14	34413.55
431.358	33727.45
431.577	33063.35
431.795	32442.24
432.014	31901.47
432.232	31568.62
432.451	31564.73
432.669	31900.58
432.887	32392
433.106	32840.13
433.324	33112.25
433.543	33227.78
433.761	33297.69
433.979	33410.67
434.198	33552.4
434.416	33648.78
434.634	33578.36
434.853	33243.95
435.071	32708.55
435.289	32203.35
435.507	31895.2
435.726	31820.55
435.944	31881.51
436.162	31890.93
436.38	31815.64
436.598	31724.24
436.817	31668.35
437.035	31670.91
437.253	31729.33
437.471	31774.95
437.689	31767.6
437.907	31693.51
438.125	31603.55
438.343	31539.55
438.561	31538.98
438.78	31539.91
438.998	31497.91
439.216	31419.58
439.434	31331.89
439.652	31307.85
439.869	31448.6
440.087	31780.16
440.305	32275.42
440.523	32816.36
440.741	33327.8
440.959	33755.78
441.177	34098.62
441.395	34400.05
441.613	34675.67
441.831	34924.33
442.048	35118.16
442.266	35191.4
442.484	35110.53
442.702	34893.4
442.919	34626.75
443.137	34398.13
443.355	34244.09
443.573	34190.04
443.79	34202.09
444.008	34242.78
444.226	34260.35
444.443	34200.95
444.661	34063.45
444.879	33874.65
445.096	33717.45
445.314	33622.35
445.532	33560.33
445.749	33491.27
445.967	33376.8
446.184	33225.27
446.402	33056.15
446.619	32896.62
446.837	32751.98
447.054	32600.07
447.272	32446.22
447.489	32258.44
447.707	32050.84
447.924	31869.36
448.141	31719.65
448.359	31625.76
448.576	31563.45
448.794	31499.05
449.011	31441.82
449.228	31389
449.446	31343.58
449.663	31278.67
449.88	31164.36
450.098	31001.8
450.315	30783.98
450.532	30584.51
450.749	30403.31
450.967	30228.33
451.184	30070.36
451.401	29910.4
451.618	29731.22
451.835	29546.98
452.052	29362.49
452.27	29180.24
452.487	29023.2
452.704	28894.18
452.921	28741.91
453.138	28551.62
453.355	28348.49
453.572	28158.67
453.789	28037.71
454.006	28017.87
454.223	28060.13
454.44	28135.27
454.657	28197.42
454.874	28205.91
455.091	28169.65
455.308	28129.47
455.525	28122.36
455.742	28166.4
455.959	28227
456.176	28273.69
456.393	28292.62
456.609	28315.29
456.826	28369.76
457.043	28503.24
457.26	28718.15
457.477	28970.04
457.693	29209.8
457.91	29431.4
458.127	29592.04
458.344	29720.87
458.56	29801.38
458.777	29810.89
458.994	29724.35
459.21	29537.47
459.427	29262.53
459.644	28959.09
459.86	28671.96
460.077	28433.96
460.294	28187.29
460.51	27915.13
460.727	27554.22
460.943	27115.85
461.16	26664.78
461.376	26286.09
461.593	26008.33
461.809	25832.51
462.026	25726.56
462.242	25651.82
462.459	25626.35
462.675	25672.69
462.892	25794.2
463.108	26035.24
463.324	26379.42
463.541	26793.2
463.757	27214.67
463.974	27608.75
464.19	27938.02
464.406	28213.62
464.623	28451.73
464.839	28593.38
465.055	28629.47
465.271	28533.67
465.488	28292.22
465.704	27946.56
465.92	27537.11
466.136	27080.38
466.353	26614.31
466.569	26175.53
466.785	25742.8
467.001	25321.09
467.217	24921.45
467.433	24535.76
467.649	24188.09
467.865	23905.38
468.082	23656.13
468.298	23407.27
468.514	23152.62
468.73	22867.02
468.946	22555.13
469.162	22223.44
469.378	21876.84
469.594	21522.09
469.81	21208.31
470.026	20966.07
470.242	20777.09
470.457	20645.67
470.673	20567.64
470.889	20525.38
471.105	20534.04
471.321	20580.78
471.537	20673.29
471.753	20827.2
471.968	21034.82
472.184	21262.05
472.4	21472.42
472.616	21670.53
472.832	21817.35
473.047	21915.35
473.263	21988.73
473.479	22041.84
473.694	22125.55
473.91	22235.29
474.126	22336.55
474.341	22415.15
474.557	22438.51
474.773	22415.55
474.988	22374.69
475.204	22372.33
475.42	22402.69
475.635	22435.27
475.851	22438.76
476.066	22355.13
476.282	22202.15
476.497	22032.09
476.713	21900.82
476.928	21864.6
477.144	21900.6
477.359	21949.78
477.575	21951.25
477.79	21909.09
478.005	21864.87
478.221	21861.2
478.436	21920.71
478.651	22031
478.867	22148.69
479.082	22242.04
479.297	22285.31
479.513	22284.15
479.728	22263.96
479.943	22276.45
480.159	22341.85
480.374	22457.13
480.589	22586.67
480.804	22705.89
481.019	22748.51
481.235	22708.75
481.45	22587.16
481.665	22413.65
481.88	22275.58
482.095	22201.8
482.31	22164.07
482.525	22148.09
482.741	22125.18
482.956	22106.85
483.171	22143.78
483.386	22277.6
483.601	22488.27
483.816	22764.56
484.031	23220.64
484.246	24643.02
484.461	27634.58
484.676	31231.93
484.891	34800.78
485.105	38341.2
485.32	41850.71
485.535	43885.4
485.75	44562.49
485.965	44599.58
486.18	44517.04
486.395	44256.84
486.609	42960.6
486.824	39969.85
487.039	36270.05
487.254	32506.29
487.469	28707.16
487.683	24917.53
487.898	22539.67
488.113	21483.82
488.327	21042.36
488.542	20699.91
488.757	20399.95
488.972	20156.62
489.186	19988.58
489.401	19884
489.615	19833.09
489.83	19808.02
490.045	19764.35
490.259	19693.27
490.474	19559.89
490.688	19391.18
490.903	19202.96
491.117	19013.22
491.332	18844.58
491.546	18712.73
491.761	18606.56
491.975	18507.98
492.19	18418.75
492.404	18337.47
492.618	18266.67
492.833	18214.36
493.047	18181.71
493.262	18158.45
493.476	18114.96
493.69	18038.8
493.905	17911.47
494.119	17732.82
494.333	17533.47
494.547	17353.25
494.762	17232.89
494.976	17212.27
495.19	17280.36
495.404	17377.4
495.619	17455.35
495.833	17472.18
496.047	17412
496.261	17322.76
496.475	17240.84
496.689	17180.42
496.903	17115.51
497.117	17029.91
497.332	16908.78
497.546	16747.53
497.76	16578.44
497.974	16448.38
498.188	16390.53
498.402	16419.71
498.616	16516.65
498.83	16620.95
499.044	16675.71
499.258	16673.44
499.472	16605.53
499.685	16502.87
499.899	16400.64
500.113	16327.47
500.327	16265.02
500.541	16210.82
500.755	16150.4
500.969	16083.44
501.183	16049.07
501.396	16060.95
501.61	16097.89
501.824	16157.78
502.038	16213.82
502.251	16230.64
502.465	16191.25
502.679	16103.95
502.892	15966.53
503.106	15808.58
503.32	15638.38
503.533	15455.69
503.747	15288.45
503.961	15150.73
504.174	15029.84
504.388	14893.75
504.602	14751.24
504.815	14627.35
505.029	14544.27
505.242	14507.49
505.456	14514.2
505.669	14511.35
505.883	14466.67
506.096	14362.35
506.31	14233.84
506.523	14108.84
506.736	14011.76
506.95	13951.42
507.163	13895.33
507.377	13821.4
507.59	13732.87
507.803	13617.51
508.017	13507.13
508.23	13439.56
508.443	13421.93
508.657	13409.09
508.87	13396.56
509.083	13366.55
509.296	13308.09
509.51	13241.51
509.723	13182.64
509.936	13131.38
510.149	13115.05
510.363	13124.82
510.576	13130.87
510.789	13120.45
511.002	13089.07
511.215	13032.91
511.428	12967.36
511.641	12914.64
511.854	12866.91
512.067	12808.87
512.28	12749.65
512.493	12669.76
512.707	12583.55
512.92	12512.44
513.132	12456.04
513.345	12424.56
513.558	12391.65
513.771	12335.42
513.984	12253.62
514.197	12159.2
514.41	12081.76
514.623	12026.16
514.836	11984.25
515.049	11955.07
515.262	11922.73
515.474	11893.49
515.687	11865.75
515.9	11832.58
516.113	11812.29
516.325	11793.71
516.538	11766.58
516.751	11716.02
516.964	11647.91
517.176	11570.62
517.389	11501.91
517.602	11454.64
517.814	11425.15
518.027	11413.8
518.24	11426.15
518.452	11433.18
518.665	11431.36
518.877	11403.18
519.09	11350.35
519.303	11279.09
519.515	11202.98
519.728	11122.67
519.94	11053.04
520.153	10976.2
520.365	10884.64
520.578	10760.64
520.79	10633.49
521.002	10516.4
521.215	10426.33
521.427	10377.24
521.64	10361.91
521.852	10354.11
522.064	10338.96
522.277	10295.42
522.489	10248.58
522.701	10206.24
522.914	10196.58
523.126	10208.49
523.338	10228.11
523.551	10243.25
523.763	10237.87
523.975	10212.15
524.187	10184.96
524.399	10160.42
524.612	10143
524.824	10124.05
525.036	10097.87
525.248	10064.87
525.46	10035.91
525.672	10016.96
525.884	10013.65
526.096	10021.16
526.308	10025.45
526.521	10017.76
526.733	9990.25
526.945	9959.22
527.157	9940.95
527.369	9952.85
527.581	9991.44
527.793	10050.16
528.004	10104.71
528.216	10131.35
528.428	10145.11
528.64	10144.49
528.852	10149.8
529.064	10166.75
529.276	10171.8
529.488	10150.93
529.699	10092.84
529.911	9992.6
530.123	9870.62
530.335	9749.18
530.547	9664.69
530.758	9599.15
530.97	9556.91
531.182	9520.76
531.393	9500.56
531.605	9511.13
531.817	9570.6
532.029	9676.24
532.24	9827.75
532.452	9985.04
532.663	10139.76
532.875	10272.76
533.087	10400.69
533.298	10522.07
533.51	10645.22
533.721	10766.44
533.933	10865.13
534.144	10912.78
534.356	10904.49
534.567	10847.4
534.779	10757.29
534.99	10642.2
535.202	10514.89
535.413	10364.42
535.624	10213.15
535.836	10056.15
536.047	9904.15
536.259	9774.78
536.47	9675.36
536.681	9627.64
536.893	9620.65
537.104	9646.38
537.315	9703.89
537.526	9788.49
537.738	9897.25
537.949	10015.91
538.16	10143.33
538.371	10245.95
538.582	10313.35
538.794	10331.02
539.005	10297.02
539.216	10234.69
539.427	10172.36
539.638	10121.45
539.849	10087.45
540.06	10056.6
540.272	10025.76
540.483	9994.07
540.694	9974.36
540.905	9977.47
541.116	10026.16
541.327	10095
541.538	10151.78
541.749	10190.8
541.96	10201.07
542.17	10189.8
542.381	10191.38
542.592	10208.05
542.803	10239.18
543.014	10275
543.225	10296.07
543.436	10298.53
543.647	10294.18
543.857	10294.02
544.068	10278.35
544.279	10242.65
544.49	10172.49
544.701	10070.78
544.911	9938.18
545.122	9790.47
545.333	9645.07
545.543	9514.49
545.754	9399.78
545.965	9322.91
546.175	9292.49
546.386	9330.84
546.597	9440.18
546.807	9605.33
547.018	9785.95
547.229	9963.91
547.439	10104.33
547.65	10184.71
547.86	10209.75
548.071	10184
548.281	10113.87
548.492	10003.64
548.702	9854.6
548.913	9671.33
549.123	9462.56
549.333	9254.8
549.544	9048.76
549.754	8856.51
549.965	8701.02
550.175	8590.16
550.385	8544.42
550.596	8558.75
550.806	8628.91
551.016	8723.84
551.227	8812.65
551.437	8882.24
551.647	8923.33
551.857	8959.27
552.068	9019.82
552.278	9096.38
552.488	9181.29
552.698	9233.2
552.908	9215.18
553.119	9118.25
553.329	8960.2
553.539	8798.93
553.749	8682.22
553.959	8622.58
554.169	8619.6
554.379	8632.56
554.589	8656.35
554.799	8675.65
555.009	8677.96
555.219	8674.11
555.429	8669.65
555.639	8671.67
555.849	8668.36
556.059	8642.69
556.269	8605.8
556.479	8543.89
556.689	8470.96
556.899	8377.09
557.109	8250.29
557.319	8124.04
557.528	8006.33
557.738	7911.33
557.948	7846.85
558.158	7798.65
558.368	7776
558.577	7770.64
558.787	7798.07
558.997	7846.27
559.207	7943.73
559.416	8084.64
559.626	8255.25
559.836	8441
560.045	8615.96
560.255	8763.24
560.465	8880.38
560.674	8950.82
560.884	8972.47
561.093	8939.02
561.303	8877.2
561.512	8773.58
561.722	8667.11
561.932	8572.69
562.141	8485.51
562.351	8424.25
562.56	8399.89
562.769	8412.27
562.979	8460.31
563.188	8528
563.398	8606.47
563.607	8686.24
563.817	8767.2
564.026	8834.15
564.235	8869.31
564.445	8897.18
564.654	8913.58
564.863	8915.42
565.073	8920.07
565.282	8935.05
565.491	8979.15
565.7	9101.49
565.91	9298.25
566.119	9548.8
566.328	9835.98
566.537	10130.75
566.746	10432.95
566.956	10756.87
567.165	11124.22
567.374	11533.65
567.583	11980.62
567.792	12480.31
568.001	13026.09
568.21	13639.24
568.419	14344.04
568.628	15111.31
568.837	15864.35
569.046	16567.8
569.255	17206.64
569.464	17828.05
569.673	18488.56
569.882	19163.96
570.091	19817.05
570.3	20404.2
570.509	20886.15
570.718	21213.38
570.927	21376.09
571.135	21388.27
571.344	21254.13
571.553	21148.65
571.762	21104.95
571.971	21185.13
572.18	21431
572.388	21731.64
572.597	22072.84
572.806	22405.87
573.014	22760.82
573.223	23182.13
573.432	23737.6
573.641	24441.89
573.849	25086.22
574.058	25551.55
574.266	25698.75
574.475	25477.96
574.684	25141
574.892	24782
575.101	24497.09
575.309	24385.24
575.518	24367.64
575.726	24409.89
575.935	24612.27
576.143	25056.69
576.352	25830.76
576.56	26918.07
576.769	28109
576.977	29106.55
577.186	29746.89
577.394	29954.15
577.602	29742.6
577.811	29338.36
578.019	28930.31
578.228	28497.65
578.436	28038.76
578.644	27489.58
578.852	26776.67
579.061	26087.24
579.269	25510.96
579.477	25125.27
579.685	25214.85
579.894	25995.8
580.102	27378.51
580.31	29187.67
580.518	31076.11
580.726	32618.82
580.935	33694.22
581.143	34296.89
581.351	34476.71
581.559	34356.65
581.767	34004.78
581.975	33270.42
582.183	31921.15
582.391	30035.89
582.599	27790.33
582.807	25526.62
583.015	23638.27
583.223	22218.95
583.431	21376.95
583.639	21081.18
583.847	21267.78
584.055	21837.16
584.263	22600.18
584.471	23393.11
584.678	24031.96
584.886	24361.87
585.094	24340.78
585.302	24046.13
585.51	23657.09
585.718	23221.33
585.925	22829.04
586.133	22495.82
586.341	22135.76
586.549	21790.18
586.756	21459.85
586.964	21211.11
587.172	21094.64
587.379	21088.25
587.587	21069.45
587.795	20844.71
588.002	20371.33
588.21	19674.62
588.417	18816.42
588.625	17951.4
588.833	17117.98
589.04	16366.56
589.248	15672.67
589.455	15016.44
589.663	14396.49
589.87	13857.38
590.078	13470.95
590.285	13236.53
590.492	13069.53
590.7	12877.29
590.907	12695.22
591.115	12675.47
591.322	12948.93
591.529	13516.13
591.737	14288.8
591.944	15092.05
592.151	15813.05
592.359	16398.38
592.566	16824.62
592.773	17112.56
592.981	17298.73
593.188	17448.27
593.395	17509.89
593.602	17467.55
593.809	17305.85
594.017	16999.09
594.224	16640.73
594.431	16267.58
594.638	15892.36
594.845	15557.02
595.052	15254.42
595.259	15006.18
595.466	14741
595.673	14420.02
595.88	13988.78
596.088	13512.55
596.295	13047.15
596.502	12630.76
596.709	12301.18
596.915	12039.6
597.122	11913.4
597.329	12025.2
597.536	12378.95
597.743	12852.27
597.95	13292.89
598.157	13570.49
598.364	13671.87
598.571	13724.47
598.777	13829.8
598.984	14005.42
599.191	14228.71
599.398	14418.85
599.605	14465.36
599.811	14349.6
600.018	14116.51
600.225	13856.24
600.431	13666.85
600.638	13528
600.845	13395.2
601.052	13243.35
601.258	13091.78
601.465	12988.67
601.671	12971.8
601.878	13023.78
602.085	13109.2
602.291	13195.65
602.498	13237.67
602.704	13198.56
602.911	13089.09
603.117	12909.25
603.324	12658.22
603.53	12362
603.737	12054.24
603.943	11693.31
604.15	11322.35
604.356	10969.33
604.562	10630.18
604.769	10318.55
604.975	10065.6
605.181	9862.22
605.388	9702.05
605.594	9612.73
605.8	9566.76
606.007	9501.25
606.213	9393.33
606.419	9190.82
606.625	8885.05
606.832	8547.73
607.038	8236.45
607.244	7984.49
607.45	7804.29
607.656	7645.29
607.863	7436.27
608.069	7174.15
608.275	6933.15
608.481	6773.71
608.687	6695.11
608.893	6663.62
609.099	6621.24
609.305	6551.69
609.511	6449.51
609.717	6329.91
609.923	6245.64
610.129	6198.45
610.335	6172.65
610.541	6115.62
610.747	5946.76
610.953	5702.71
611.159	5453.15
611.365	5249.93
611.571	5117.51
611.776	5016.76
611.982	4910.89
612.188	4780.35
612.394	4657.11
612.6	4541.16
612.806	4432.82
613.011	4353.36
613.217	4284.51
613.423	4201.65
613.628	4107.49
613.834	4002.58
614.04	3916.36
614.246	3853.69
614.451	3782.6
614.657	3672.2
614.862	3535.42
615.068	3384.93
615.274	3244.33
615.479	3129.2
615.685	3031.67
615.89	2944.82
616.096	2851.89
616.301	2747.36
616.507	2634.8
616.712	2536.91
616.918	2464.13
617.123	2401.16
617.329	2340.84
617.534	2272.58
617.74	2198
617.945	2122.13
618.15	2040.89
618.356	1934.82
618.561	1757
618.766	1546.73
618.972	1334.91
619.177	1132.98
619.382	950.56
619.588	783.65
619.793	691.96
619.998	582.67
620.203	446.3
620.408	276.26
620.614	102.47
