Data from ChClEG12_MAYP1115451__1__15-53-37-917.txt Node

Date: Tue Jun 11 15:53:37 MDT 2024
User: Modes Lab
Spectrometer: MAYP111545
Trigger mode: 0
Integration Time (sec): 8.000000E-3
Scans to average: 5
Electric dark correction enabled: true
Nonlinearity correction enabled: false
Boxcar width: 5
XAxis mode: Wavelengths
Number of Pixels in Spectrum: 2068
>>>>>Begin Spectral Data<<<<<
165.214	168.5
165.449	171.76
165.683	184.1
165.918	195.59
166.152	203.84
166.387	210.54
166.621	144.65
166.856	186.39
167.09	209.32
167.325	235.59
167.559	254.21
167.794	270.92
168.028	278.85
168.263	280.06
168.497	280.37
168.732	281.48
168.966	283.17
169.2	285.15
169.435	287.46
169.669	288.66
169.903	291.41
170.138	294.65
170.372	296.1
170.606	298.25
170.841	300.59
171.075	303.06
171.309	305.77
171.544	307.23
171.778	308.5
172.012	310.21
172.246	311.97
172.48	314.65
172.715	315.52
172.949	318.35
173.183	320.61
173.417	322.15
173.651	324.21
173.885	325.17
174.119	326.37
174.354	328.25
174.588	329.41
174.822	330.94
175.056	329.72
175.29	330.39
175.524	329.95
175.758	330.34
175.992	330.54
176.226	329.57
176.46	330.63
176.694	331.77
176.928	331.97
177.162	332.83
177.396	332.7
177.63	334.7
177.864	335.23
178.097	336.52
178.331	337.85
178.565	338.23
178.799	340.08
179.033	340.43
179.267	341.25
179.5	342.3
179.734	343.26
179.968	345.79
180.202	346.94
180.436	348.85
180.669	349.46
180.903	349.5
181.137	351.37
181.371	352.37
181.604	352.55
181.838	354.45
182.072	355.48
182.305	356.52
182.539	355.7
182.772	356.28
183.006	357.88
183.24	359.05
183.473	362.95
183.707	363.65
183.94	364.28
184.174	367.26
184.408	368.55
184.641	370.28
184.875	371.15
185.108	374.7
185.342	376.41
185.575	378.26
185.808	380.25
186.042	381.17
186.275	382.72
186.509	385.48
186.742	387.28
186.976	387.83
187.209	389.97
187.442	392.01
187.676	391.75
187.909	392.9
188.142	393.39
188.376	395.35
188.609	396.41
188.842	398.81
189.076	399.75
189.309	400.12
189.542	402.94
189.775	404.57
190.009	407.26
190.242	409.12
190.475	410.59
190.708	412.85
190.941	414.65
191.174	416.85
191.408	419.83
191.641	421.81
191.874	424.32
192.107	426.3
192.34	428.83
192.573	430.97
192.806	433.59
193.039	437.01
193.272	440.14
193.505	442.08
193.738	444.41
193.971	446.92
194.204	449.26
194.437	452.7
194.67	455.92
194.903	458.63
195.136	460.83
195.369	462.79
195.602	465.01
195.835	468.25
196.068	473.34
196.301	475.3
196.533	478.59
196.766	481.05
196.999	484.12
197.232	487.61
197.465	491.15
197.698	494.99
197.93	500.46
198.163	505.41
198.396	508.5
198.629	511.19
198.861	516.43
199.094	520.39
199.327	525.92
199.559	529.68
199.792	533.25
200.025	538.21
200.257	544.66
200.49	550.59
200.723	556.9
200.955	564.5
201.188	573.26
201.42	583.59
201.653	595.95
201.886	609.01
202.118	625.65
202.351	642.5
202.583	661.94
202.816	684.45
203.048	711.52
203.281	738.57
203.513	770.05
203.745	805.19
203.978	846.45
204.21	890.99
204.443	940.32
204.675	992.74
204.907	1050.23
205.14	1110.3
205.372	1173.3
205.605	1239.12
205.837	1311.12
206.069	1385.41
206.302	1461.7
206.534	1536.37
206.766	1613.72
206.998	1693.59
207.231	1772.74
207.463	1855.57
207.695	1935.48
207.927	2018.06
208.159	2098.88
208.392	2177.94
208.624	2257.61
208.856	2335.12
209.088	2416.92
209.32	2493.95
209.552	2570.26
209.784	2650.08
210.017	2724.19
210.249	2801.12
210.481	2877.77
210.713	2950.65
210.945	3024.77
211.177	3097.57
211.409	3173.95
211.641	3245.63
211.873	3319.19
212.105	3391.9
212.337	3461.01
212.569	3535.12
212.801	3610.55
213.033	3683.14
213.264	3763.94
213.496	3840.92
213.728	3919.14
213.96	3993.65
214.192	4070.81
214.424	4150.08
214.656	4228.45
214.887	4308.01
215.119	4388.34
215.351	4465.83
215.583	4545.23
215.815	4619.86
216.046	4696.55
216.278	4772.7
216.51	4854.23
216.741	4935.43
216.973	5011.79
217.205	5096.81
217.436	5180.08
217.668	5260.65
217.9	5343.32
218.131	5423.14
218.363	5503.08
218.595	5591.54
218.826	5677.94
219.058	5761.85
219.289	5844.32
219.521	5932.25
219.752	6013.99
219.984	6099.85
220.215	6186.95
220.447	6276.43
220.678	6365.68
220.91	6456.86
221.141	6545.39
221.373	6638.77
221.604	6731.37
221.836	6825.23
222.067	6914.39
222.298	7010.46
222.53	7103.72
222.761	7193.88
222.993	7286.12
223.224	7385.59
223.455	7483.7
223.686	7579.85
223.918	7674.95
224.149	7775.12
224.38	7877.39
224.612	7981.55
224.843	8081.35
225.074	8184.95
225.305	8294.92
225.536	8396.5
225.768	8492.55
225.999	8596.21
226.23	8697.68
226.461	8798.05
226.692	8894.01
226.923	8990.41
227.155	9093.77
227.386	9198.28
227.617	9297.7
227.848	9394.34
228.079	9498.57
228.31	9607.34
228.541	9711.1
228.772	9819.05
229.003	9925.23
229.234	10034.15
229.465	10137.77
229.696	10240.72
229.927	10344.3
230.158	10445.99
230.389	10552.12
230.62	10661.57
230.85	10763.19
231.081	10862.43
231.312	10963.48
231.543	11070.72
231.774	11169.48
232.005	11275.1
232.236	11379.52
232.466	11487.43
232.697	11594.3
232.928	11695.77
233.159	11787.21
233.389	11885.81
233.62	11982.08
233.851	12075.97
234.082	12156.5
234.312	12246.05
234.543	12332.88
234.774	12414.9
235.004	12491.35
235.235	12566.45
235.466	12638.3
235.696	12715.35
235.927	12781.5
236.157	12854.46
236.388	12923.83
236.618	12998.46
236.849	13070.88
237.08	13140.41
237.31	13204.46
237.541	13259.57
237.771	13328.15
238.002	13388.83
238.232	13447.17
238.463	13513.08
238.693	13569.21
238.923	13622.68
239.154	13676.9
239.384	13725.7
239.615	13768.92
239.845	13816.54
240.075	13866.95
240.306	13908.03
240.536	13957.61
240.766	14005.34
240.997	14048.95
241.227	14094.37
241.457	14138.94
241.687	14184.15
241.918	14226.5
242.148	14275.03
242.378	14322.21
242.608	14366.1
242.839	14405.14
243.069	14444.68
243.299	14477.14
243.529	14517.19
243.759	14549.97
243.989	14587.45
244.22	14617.52
244.45	14652.9
244.68	14689.35
244.91	14719.35
245.14	14749.21
245.37	14775.92
245.6	14799.83
245.83	14835.35
246.06	14857.35
246.29	14890.88
246.52	14916.26
246.75	14947.99
246.98	14979.55
247.21	15005.77
247.44	15035.23
247.67	15075.59
247.9	15116.74
248.13	15153.9
248.359	15184.5
248.589	15220.65
248.819	15250.74
249.049	15281.74
249.279	15313.81
249.509	15332.21
249.738	15355.95
249.968	15379.1
250.198	15391.52
250.428	15410.57
250.657	15430.03
250.887	15451.01
251.117	15471.45
251.347	15491.57
251.576	15511.35
251.806	15529.65
252.036	15557.26
252.265	15575.74
252.495	15592.63
252.725	15608.74
252.954	15630.45
253.184	15649.5
253.413	15661.55
253.643	15665.01
253.873	15669.34
254.102	15682.77
254.332	15689.39
254.561	15696.9
254.791	15704.05
255.02	15716.3
255.25	15730.7
255.479	15734.72
255.708	15738.68
255.938	15744.86
256.167	15760.63
256.397	15766.54
256.626	15765.08
256.856	15765.99
257.085	15761.99
257.314	15761.45
257.544	15753.26
257.773	15746.15
258.002	15740.9
258.232	15738.03
258.461	15735.48
258.69	15724.06
258.919	15720.34
259.149	15719.46
259.378	15719.39
259.607	15723.26
259.836	15726.12
260.065	15730.06
260.295	15725.61
260.524	15716.79
260.753	15709.9
260.982	15706.35
261.211	15703.92
261.44	15708.77
261.669	15702.14
261.899	15701.15
262.128	15689.46
262.357	15679.17
262.586	15665.77
262.815	15662.79
263.044	15657.81
263.273	15653.1
263.502	15646.94
263.731	15637.9
263.96	15627.3
264.189	15620.5
264.418	15605.88
264.646	15596.77
264.875	15588.23
265.104	15587.83
265.333	15576.1
265.562	15566.45
265.791	15556.45
266.02	15540.37
266.249	15536.48
266.477	15520.06
266.706	15511.1
266.935	15503.92
267.164	15502.57
267.393	15491.66
267.621	15483.41
267.85	15479.9
268.079	15482.26
268.307	15481.63
268.536	15489.59
268.765	15491.54
268.993	15500.41
269.222	15508.41
269.451	15514.7
269.679	15516.15
269.908	15525.61
270.137	15536.23
270.365	15546.85
270.594	15556.3
270.822	15567.88
271.051	15575.25
271.279	15585.9
271.508	15597.06
271.736	15609.88
271.965	15619.72
272.193	15632.95
272.422	15643.79
272.65	15654.68
272.879	15669.97
273.107	15684.54
273.336	15696.43
273.564	15711.32
273.792	15720.37
274.021	15736.88
274.249	15748.52
274.477	15762.7
274.706	15783.12
274.934	15802.28
275.162	15818.97
275.391	15831.92
275.619	15851.23
275.847	15874.97
276.075	15898.1
276.304	15924.03
276.532	15944.83
276.76	15969.35
276.988	16000.17
277.216	16020.7
277.445	16051.01
277.673	16078.55
277.901	16108.14
278.129	16135.34
278.357	16162.83
278.585	16190.05
278.813	16223.06
279.041	16253.03
279.269	16286.7
279.497	16318.3
279.725	16352.79
279.954	16387.46
280.182	16428.12
280.41	16466.26
280.637	16496.32
280.865	16524.08
281.093	16555.65
281.321	16580.86
281.549	16611.5
281.777	16633.92
282.005	16659.01
282.233	16688.34
282.461	16708.46
282.689	16723.81
282.916	16748.86
283.144	16778.57
283.372	16810.5
283.6	16831.52
283.828	16858.83
284.055	16891.55
284.283	16926.79
284.511	16958.74
284.739	16991.01
284.966	17022.75
285.194	17053.39
285.422	17079.01
285.649	17105.59
285.877	17132.99
286.105	17174.06
286.332	17205.39
286.56	17226.99
286.788	17253.3
287.015	17274.28
287.243	17299.72
287.47	17327.97
287.698	17357.35
287.925	17389.79
288.153	17419.41
288.381	17447.15
288.608	17473.72
288.836	17499.59
289.063	17530.32
289.29	17559.21
289.518	17599.55
289.745	17624.5
289.973	17653.52
290.2	17683.3
290.428	17712.25
290.655	17743.1
290.882	17778.08
291.11	17802.77
291.337	17830.06
291.564	17856.01
291.792	17887.72
292.019	17905.57
292.246	17933.3
292.473	17954.23
292.701	17976.68
292.928	17999.41
293.155	18019.1
293.382	18040.32
293.61	18062.88
293.837	18085.12
294.064	18104.86
294.291	18115.37
294.518	18132.81
294.745	18155.75
294.972	18173.59
295.2	18196.17
295.427	18212.86
295.654	18227.52
295.881	18236.79
296.108	18258.59
296.335	18277.01
296.562	18297.46
296.789	18315.21
297.016	18331.03
297.243	18341.06
297.47	18365.63
297.697	18376.75
297.924	18380.88
298.151	18396.59
298.378	18406.7
298.604	18403.37
298.831	18411.43
299.058	18416.52
299.285	18414.59
299.512	18420.95
299.739	18431.45
299.966	18431.94
300.192	18440.97
300.419	18447.68
300.646	18448.65
300.873	18455.88
301.099	18461.74
301.326	18462.1
301.553	18458.17
301.78	18464.99
302.006	18464.37
302.233	18455.75
302.46	18442.25
302.686	18434.39
302.913	18428.97
303.14	18420.94
303.366	18405.9
303.593	18402.86
303.819	18400.65
304.046	18392.03
304.272	18388.72
304.499	18377.48
304.725	18365.66
304.952	18367.14
305.179	18356.83
305.405	18348.83
305.631	18333.41
305.858	18329.54
306.084	18311.7
306.311	18297.26
306.537	18293.5
306.764	18277.74
306.99	18272.23
307.216	18265.12
307.443	18251.03
307.669	18236.25
307.895	18219.41
308.122	18211.46
308.348	18193.88
308.574	18180.54
308.801	18161.43
309.027	18139.12
309.253	18120.17
309.479	18096.54
309.706	18070.37
309.932	18046.63
310.158	18028.81
310.384	18012.86
310.61	17991.34
310.837	17972.97
311.063	17952.66
311.289	17933.94
311.515	17912.12
311.741	17894.72
311.967	17877.77
312.193	17863.37
312.419	17838.19
312.645	17811.3
312.871	17790.88
313.097	17768.14
313.323	17748.34
313.549	17726.03
313.775	17704.9
314.001	17685.86
314.227	17663.06
314.453	17637.54
314.679	17617.41
314.905	17598.46
315.131	17571.9
315.357	17539.45
315.583	17514.41
315.809	17489.45
316.034	17471.17
316.26	17442.41
316.486	17415.5
316.712	17389.72
316.938	17363.72
317.163	17336.35
317.389	17311.08
317.615	17287.61
317.841	17270.37
318.066	17246.01
318.292	17213.03
318.518	17187.85
318.743	17162.48
318.969	17142.34
319.195	17117.92
319.42	17088.63
319.646	17061.83
319.872	17041.35
320.097	17022.72
320.323	16999.97
320.548	16980.57
320.774	16964.92
320.999	16932.55
321.225	16911.68
321.45	16878.65
321.676	16859.06
321.901	16843.5
322.127	16825.14
322.352	16801.86
322.578	16782.92
322.803	16760.77
323.029	16736.52
323.254	16715.57
323.479	16701.12
323.705	16686.06
323.93	16674.39
324.155	16653.85
324.381	16626.79
324.606	16607.74
324.831	16590.23
325.057	16566.52
325.282	16548.77
325.507	16533.19
325.732	16512.54
325.958	16491.32
326.183	16465.9
326.408	16440.85
326.633	16411.86
326.858	16397.34
327.084	16372.81
327.309	16350.7
327.534	16338.19
327.759	16318.3
327.984	16296.68
328.209	16280.25
328.434	16264.75
328.659	16254.86
328.884	16246.12
329.109	16234.37
329.334	16222.43
329.559	16209.43
329.784	16186.37
330.009	16162.45
330.234	16140.75
330.459	16122.95
330.684	16095.14
330.909	16071.95
331.134	16042.79
331.359	16019.94
331.584	16001.23
331.809	15974.46
332.034	15952.79
332.259	15939.35
332.483	15918.15
332.708	15902.99
332.933	15877.59
333.158	15866.68
333.383	15854.17
333.607	15842.1
333.832	15827.66
334.057	15811.15
334.282	15803.1
334.506	15789.23
334.731	15775.21
334.956	15759.61
335.18	15747.43
335.405	15737.57
335.63	15719.95
335.854	15705.85
336.079	15689.86
336.303	15669.55
336.528	15648.63
336.753	15627.08
336.977	15603.92
337.202	15584.83
337.426	15568.46
337.651	15547.79
337.875	15533.54
338.1	15522.48
338.324	15500.45
338.549	15477.61
338.773	15461.99
338.997	15453.65
339.222	15437.26
339.446	15430.1
339.671	15417.17
339.895	15405.08
340.119	15391.39
340.344	15378.37
340.568	15367.57
340.792	15355.81
341.017	15344.52
341.241	15325.52
341.465	15305.3
341.689	15292.23
341.914	15270.48
342.138	15251.3
342.362	15233.03
342.586	15212.79
342.811	15194.39
343.035	15174.1
343.259	15153.72
343.483	15135.1
343.707	15121.92
343.931	15109.15
344.155	15085.21
344.38	15072.9
344.604	15055.88
344.828	15044.21
345.052	15029.95
345.276	15014.72
345.5	14997.19
345.724	14985.14
345.948	14976.08
346.172	14965.95
346.396	14949.77
346.62	14949.95
346.844	14935.41
347.068	14916.15
347.292	14895.52
347.515	14874.45
347.739	14854.35
347.963	14830.79
348.187	14806.39
348.411	14783.3
348.635	14758.86
348.859	14735.81
349.082	14708.95
349.306	14677.9
349.53	14661.12
349.754	14636.28
349.977	14618.39
350.201	14593.77
350.425	14575.81
350.649	14562.37
350.872	14540.75
351.096	14519.57
351.32	14496.21
351.543	14472.46
351.767	14459.32
351.99	14437.19
352.214	14417.48
352.438	14395.32
352.661	14377.19
352.885	14360.7
353.108	14335.21
353.332	14319.99
353.555	14297.95
353.779	14278.86
354.002	14258.77
354.226	14238.5
354.449	14221.75
354.673	14206.48
354.896	14191.68
355.12	14174.19
355.343	14155.63
355.566	14138.03
355.79	14113.06
356.013	14098.05
356.237	14082.48
356.46	14065.21
356.683	14044.88
356.907	14027.99
357.13	14012.7
357.353	13992.1
357.576	13976.5
357.8	13960.06
358.023	13946.19
358.246	13932.35
358.469	13910.55
358.693	13894.37
358.916	13873.57
359.139	13858.92
359.362	13837.05
359.585	13814.61
359.808	13795.28
360.031	13773.79
360.255	13751.41
360.478	13733.15
360.701	13720.72
360.924	13711.19
361.147	13696.59
361.37	13687.3
361.593	13671.97
361.816	13665.59
362.039	13658.55
362.262	13647.86
362.485	13637.61
362.708	13625.88
362.931	13611.15
363.154	13593.21
363.377	13583.41
363.599	13574.25
363.822	13562.92
364.045	13553.7
364.268	13541.15
364.491	13531.59
364.714	13530.85
364.936	13530.81
365.159	13533.54
365.382	13549.08
365.605	13562.35
365.828	13569.66
366.05	13579.61
366.273	13590.88
366.496	13600.97
366.718	13612.59
366.941	13617.52
367.164	13618.88
367.386	13619.57
367.609	13620.79
367.832	13609.01
368.054	13596.1
368.277	13584.85
368.5	13566.85
368.722	13542.95
368.945	13524.86
369.167	13496.15
369.39	13472.32
369.612	13450.75
369.835	13433.26
370.057	13408.75
370.28	13389.35
370.502	13385.01
370.725	13370.37
370.947	13364.75
371.169	13362.81
371.392	13355.5
371.614	13355.19
371.837	13353.54
372.059	13354.52
372.281	13351.57
372.504	13353.37
372.726	13359.68
372.948	13353.45
373.171	13358.34
373.393	13366.85
373.615	13383.95
373.837	13408.94
374.06	13433.86
374.282	13468.65
374.504	13500.21
374.726	13529.95
374.948	13554.94
375.17	13569.28
375.393	13584.99
375.615	13608.17
375.837	13627.55
376.059	13646.03
376.281	13663.25
376.503	13693.99
376.725	13721.32
376.947	13750.83
377.169	13785.59
377.391	13826.26
377.613	13877.41
377.835	13936.35
378.057	14002.74
378.279	14060.12
378.501	14110.5
378.723	14150.5
378.945	14167.95
379.167	14182.85
379.389	14197.32
379.611	14215.32
379.833	14230.14
380.054	14231.66
380.276	14222.08
380.498	14196.75
380.72	14185.61
380.942	14181.95
381.163	14197.66
381.385	14231.28
381.607	14263.25
381.829	14289.54
382.05	14310.26
382.272	14328.57
382.494	14345.66
382.716	14374.01
382.937	14404.03
383.159	14429.48
383.381	14453.05
383.602	14466.66
383.824	14469.43
384.045	14472.99
384.267	14485.1
384.488	14490.48
384.71	14505.3
384.932	14532.7
385.153	14561.77
385.375	14588.63
385.596	14620.7
385.818	14657.54
386.039	14706.5
386.261	14771.46
386.482	14841.37
386.703	14907.01
386.925	14981.79
387.146	15056.81
387.368	15127.83
387.589	15195.43
387.81	15256.68
388.032	15296.85
388.253	15315.55
388.474	15313.17
388.696	15293.21
388.917	15278.15
389.138	15261.75
389.359	15249.21
389.581	15232.17
389.802	15230.32
390.023	15224.68
390.244	15228.3
390.465	15255.7
390.687	15309.94
390.908	15375.52
391.129	15473.08
391.35	15577.14
391.571	15701.03
391.792	15826.61
392.013	15953.39
392.234	16051.57
392.455	16133.57
392.677	16195.12
392.898	16240.79
393.119	16278.45
393.34	16317.77
393.561	16339.41
393.782	16340.52
394.003	16322.81
394.223	16289.39
394.444	16243.94
394.665	16215.9
394.886	16206.83
395.107	16218.15
395.328	16246.01
395.549	16281.05
395.77	16314.21
395.99	16350.32
396.211	16400.63
396.432	16472.03
396.653	16562.3
396.874	16679.46
397.094	16803.17
397.315	16941.54
397.536	17080.66
397.757	17195.7
397.977	17282.81
398.198	17348.26
398.419	17397.77
398.639	17433.66
398.86	17438.14
399.081	17424.59
399.301	17381.74
399.522	17334.19
399.742	17275.9
399.963	17216.1
400.184	17168.03
400.404	17138.68
400.625	17116.48
400.845	17097.52
401.066	17085.9
401.286	17078.26
401.507	17084.03
401.727	17106.81
401.948	17124.94
402.168	17131.99
402.388	17146.77
402.609	17166.41
402.829	17189.32
403.05	17233.54
403.27	17288.01
403.49	17338.37
403.711	17414.05
403.931	17491.21
404.151	17581.37
404.372	17670.43
404.592	17765.86
404.812	17841.75
405.032	17898.86
405.253	17927.48
405.473	17931.85
405.693	17919.12
405.913	17901.01
406.133	17854.01
406.353	17810.41
406.574	17739.23
406.794	17675.63
407.014	17621.97
407.234	17596.72
407.454	17601.52
407.674	17627.08
407.894	17667.43
408.114	17714.72
408.334	17763.61
408.554	17828.75
408.774	17896.5
408.994	17972.59
409.214	18038.9
409.434	18072.05
409.654	18088.74
409.874	18083.52
410.094	18092.68
410.314	18106.06
410.534	18122.35
410.754	18150.77
410.974	18176.41
411.193	18207.66
411.413	18260.21
411.633	18325.08
411.853	18421.23
412.073	18510.85
412.292	18611.26
412.512	18691.88
412.732	18764.68
412.952	18824.7
413.171	18867.55
413.391	18906.57
413.611	18929.17
413.831	18934.12
414.05	18941.1
414.27	18936.05
414.489	18933.61
414.709	18923.65
414.929	18924.28
415.148	18930.06
415.368	18954.92
415.587	18992.3
415.807	19027.1
416.026	19054.25
416.246	19081.68
416.465	19097.59
416.685	19121.46
416.904	19150.72
417.124	19182.97
417.343	19215.52
417.563	19253.3
417.782	19280.57
418.002	19314.28
418.221	19356.37
418.44	19413.14
418.66	19467.03
418.879	19534.45
419.098	19594.59
419.318	19674.95
419.537	19772.77
419.756	19878.25
419.976	19997.94
420.195	20149.52
420.414	20313.28
420.633	20488.63
420.853	20652.01
421.072	20807.85
421.291	20935.65
421.51	21059.14
421.729	21150.52
421.948	21237.59
422.168	21318.1
422.387	21378.17
422.606	21402.85
422.825	21390.05
423.044	21341.23
423.263	21290.3
423.482	21240.28
423.701	21217.14
423.92	21199.75
424.139	21189.79
424.358	21166.59
424.577	21122.86
424.796	21058.81
425.015	20997.34
425.234	20942.66
425.453	20915.79
425.672	20902.54
425.891	20930.39
426.11	20977.32
426.328	21051.26
426.547	21131.01
426.766	21194.63
426.985	21252.15
427.204	21308.21
427.422	21361.99
427.641	21436.34
427.86	21517.85
428.079	21609.81
428.297	21697.1
428.516	21791.01
428.735	21888.72
428.954	21993.41
429.172	22119.06
429.391	22252.39
429.61	22403.52
429.828	22539.63
430.047	22650.45
430.265	22715.43
430.484	22738.5
430.703	22701.35
430.921	22619.52
431.14	22497.19
431.358	22364.65
431.577	22237.99
431.795	22126.68
432.014	22034.25
432.232	22011.88
432.451	22054.55
432.669	22181.35
432.887	22346.68
433.106	22507.9
433.324	22624.3
433.543	22704.81
433.761	22768.5
433.979	22845.66
434.198	22928.21
434.416	22988.55
434.634	23003.08
434.853	22969.54
435.071	22892.57
435.289	22818.88
435.507	22785.65
435.726	22805.08
435.944	22857.03
436.162	22915.46
436.38	22940.46
436.598	22962.43
436.817	22999.55
437.035	23050.88
437.253	23106.57
437.471	23163.63
437.689	23204.41
437.907	23235.26
438.125	23266.01
438.343	23307.12
438.561	23344.12
438.78	23393.59
438.998	23434.95
439.216	23467.37
439.434	23494.9
439.652	23543.39
439.869	23633.23
440.087	23770.05
440.305	23941.65
440.523	24120.21
440.741	24299.92
440.959	24465.85
441.177	24609.74
441.395	24741.81
441.613	24867.03
441.831	24986.41
442.048	25080.79
442.266	25142.19
442.484	25167.86
442.702	25170.01
442.919	25159.15
443.137	25148.77
443.355	25162.45
443.573	25194.45
443.79	25241.41
444.008	25298.21
444.226	25350.28
444.443	25386.63
444.661	25404.37
444.879	25411.14
445.096	25425.06
445.314	25444.61
445.532	25477.1
445.749	25501.74
445.967	25523.72
446.184	25531.08
446.402	25530.97
446.619	25528.59
446.837	25543.95
447.054	25553.5
447.272	25564.05
447.489	25563.92
447.707	25568.03
447.924	25567.19
448.141	25592.75
448.359	25611.95
448.576	25648.79
448.794	25687.88
449.011	25732.68
449.228	25763.12
449.446	25796.39
449.663	25824.86
449.88	25836.95
450.098	25846.63
450.315	25842.48
450.532	25838.28
450.749	25848.99
450.967	25851.14
451.184	25859.25
451.401	25866.19
451.618	25874.06
451.835	25878.7
452.052	25873.25
452.27	25882.17
452.487	25888.1
452.704	25906.39
452.921	25906.59
453.138	25905.55
453.355	25910.57
453.572	25917.99
453.789	25930.46
454.006	25975.25
454.223	26038.1
454.44	26115.17
454.657	26184.19
454.874	26233.66
455.091	26274.75
455.308	26324.23
455.525	26373.55
455.742	26433.63
455.959	26495.65
456.176	26562.57
456.393	26619.72
456.609	26678.08
456.826	26746.75
457.043	26820.99
457.26	26922.23
457.477	27028.3
457.693	27133.39
457.91	27232.74
458.127	27324.23
458.344	27403.59
458.56	27465.23
458.777	27506.57
458.994	27520.41
459.21	27509.45
459.427	27482.39
459.644	27446.08
459.86	27411.72
460.077	27372.45
460.294	27343.37
460.51	27302.37
460.727	27238.88
460.943	27167.1
461.16	27095.97
461.376	27046.55
461.593	27016.28
461.809	27016.54
462.026	27030.12
462.242	27064.57
462.459	27108.43
462.675	27161.55
462.892	27235.25
463.108	27347.25
463.324	27476.25
463.541	27623.3
463.757	27759.55
463.974	27910.25
464.19	28037.21
464.406	28158.55
464.623	28264.34
464.839	28357.26
465.055	28425.99
465.271	28457.83
465.488	28443.23
465.704	28418.34
465.92	28370.45
466.136	28319.52
466.353	28251.81
466.569	28193.94
466.785	28138.72
467.001	28081.23
467.217	28031.9
467.433	27983.35
467.649	27955.48
467.865	27954.59
468.082	27953.88
468.298	27956.05
468.514	27950.43
468.73	27942.03
468.946	27938.86
469.162	27924.83
469.378	27907.39
469.594	27892.34
469.81	27882.23
470.026	27884.5
470.242	27909.26
470.457	27942.74
470.673	27991.81
470.889	28060.77
471.105	28134.59
471.321	28216.48
471.537	28319.5
471.753	28429.26
471.968	28552.37
472.184	28689.59
472.4	28825.17
472.616	28948.66
472.832	29065.7
473.047	29167.81
473.263	29264.1
473.479	29374.37
473.694	29478.43
473.91	29582.06
474.126	29699.14
474.341	29797.15
474.557	29878.83
474.773	29944.25
474.988	30004.28
475.204	30074.01
475.42	30153.66
475.635	30244.32
475.851	30308.35
476.066	30361.1
476.282	30402.19
476.497	30432.95
476.713	30477.88
476.928	30544.7
477.144	30639.01
477.359	30735.39
477.575	30810.17
477.79	30877.79
478.005	30930.17
478.221	30989.95
478.436	31072.21
478.651	31160.63
478.867	31243.72
479.082	31325.97
479.297	31402.88
479.513	31453.68
479.728	31491.19
479.943	31549.28
480.159	31609.83
480.374	31696.99
480.589	31788.05
480.804	31876.52
481.019	31946.34
481.235	32001.57
481.45	32030.77
481.665	32046.75
481.88	32076.92
482.095	32127.79
482.31	32185.41
482.525	32250.46
482.741	32302.97
482.956	32359.25
483.171	32417.19
483.386	32502.88
483.601	32594.68
483.816	32720.81
484.031	32891.15
484.246	33348.61
484.461	34207.3
484.676	35358.23
484.891	36698.14
485.105	37933.37
485.32	38825.17
485.535	39399.97
485.75	39671.05
485.965	39760.55
486.18	39786.85
486.395	39756.3
486.609	39416.66
486.824	38649.1
487.039	37548.72
487.254	36243.37
487.469	35030.23
487.683	34152.06
487.898	33571.39
488.113	33284.55
488.327	33186.5
488.542	33131.05
488.757	33086.03
488.972	33066.25
489.186	33064.3
489.401	33081.35
489.615	33111.81
489.83	33139.86
490.045	33166.57
490.259	33192.74
490.474	33194.95
490.688	33186.5
490.903	33172.26
491.117	33160.95
491.332	33147.03
491.546	33143.92
491.761	33159.37
491.975	33164.48
492.19	33180.32
492.404	33199.14
492.618	33210.25
492.833	33235.39
493.047	33278.52
493.262	33306.45
493.476	33333.01
493.69	33346.54
493.905	33347.83
494.119	33324.99
494.333	33315.14
494.547	33296.9
494.762	33302.45
494.976	33334.35
495.19	33379.85
495.404	33417.61
495.619	33467.68
495.833	33494.06
496.047	33506.01
496.261	33506.06
496.475	33505.92
496.689	33486.59
496.903	33475.86
497.117	33442.85
497.332	33402.55
497.546	33347.97
497.76	33294.26
497.974	33254.26
498.188	33233.54
498.402	33239.32
498.616	33251.15
498.83	33260.34
499.044	33273.52
499.258	33269.25
499.472	33253.68
499.685	33238.26
499.899	33226.01
500.113	33222.3
500.327	33213.61
500.541	33200.14
500.755	33189.37
500.969	33185.65
501.183	33195.9
501.396	33210.9
501.61	33236.94
501.824	33275.94
502.038	33315.99
502.251	33343.26
502.465	33356.32
502.679	33350.1
502.892	33354.94
503.106	33340.83
503.32	33321.05
503.533	33302.08
503.747	33292.25
503.961	33287.37
504.174	33288.95
504.388	33279.74
504.602	33282.9
504.815	33282.94
505.029	33314.1
505.242	33339.15
505.456	33380.7
505.669	33418.54
505.883	33452.15
506.096	33474.3
506.31	33502.14
506.523	33525.08
506.736	33554.7
506.95	33585.37
507.163	33633.72
507.377	33671.34
507.59	33723.1
507.803	33768.01
508.017	33828.32
508.23	33897.74
508.443	33971.86
508.657	34043.46
508.87	34113.17
509.083	34183.35
509.296	34256.63
509.51	34318.59
509.723	34406.61
509.936	34475.52
510.149	34563.61
510.363	34656.08
510.576	34747.72
510.789	34840.55
511.002	34933.66
511.215	35031.85
511.428	35136.86
511.641	35233.95
511.854	35331.81
512.067	35417.43
512.28	35520.66
512.493	35610.88
512.707	35699.94
512.92	35805.77
513.132	35914.03
513.345	36019.55
513.558	36122.17
513.771	36219.59
513.984	36317.95
514.197	36420.45
514.41	36517.28
514.623	36622.77
514.836	36734.01
515.049	36840.92
515.262	36943.1
515.474	37058.08
515.687	37169.34
515.9	37270.37
516.113	37370.03
516.325	37476.48
516.538	37583.63
516.751	37684.99
516.964	37768.68
517.176	37848.39
517.389	37928.75
517.602	38012.72
517.814	38088.5
518.027	38171.52
518.24	38258.15
518.452	38344.43
518.665	38422.06
518.877	38490.61
519.09	38552.5
519.303	38609.5
519.515	38670.9
519.728	38738.28
519.94	38798.52
520.153	38867.94
520.365	38921.83
520.578	38979.54
520.79	39032.23
521.002	39091.14
521.215	39137.83
521.427	39194.88
521.64	39261.54
521.852	39322.92
522.064	39369.61
522.277	39421.39
522.489	39463.68
522.701	39509.5
522.914	39568.17
523.126	39623.5
523.338	39668.94
523.551	39728.03
523.763	39781.17
523.975	39831.1
524.187	39874.57
524.399	39930.23
524.612	39972.5
524.824	40009.81
525.036	40054.14
525.248	40084.03
525.46	40125.72
525.672	40176.55
525.884	40226.1
526.096	40264.34
526.308	40305.79
526.521	40343.23
526.733	40373.61
526.945	40405.39
527.157	40444.41
527.369	40492.72
527.581	40542.9
527.793	40593.34
528.004	40633.48
528.216	40672.35
528.428	40719.79
528.64	40760.52
528.852	40806.66
529.064	40860.45
529.276	40903.7
529.488	40935.95
529.699	40949.81
529.911	40955.86
530.123	40963.08
530.335	40977.15
530.547	40990.75
530.758	41003.3
530.97	41025.1
531.182	41045.85
531.393	41066.3
531.605	41106.75
531.817	41160.21
532.029	41216.83
532.24	41296.46
532.452	41360.75
532.663	41431.25
532.875	41498.41
533.087	41564.26
533.298	41630.34
533.51	41699.25
533.721	41748.43
533.933	41794.75
534.144	41833.43
534.356	41865.95
534.567	41863.23
534.779	41872.46
534.99	41862.88
535.202	41852.43
535.413	41837.15
535.624	41802.35
535.836	41780.28
536.047	41775.92
536.259	41765.66
536.47	41753.1
536.681	41763.15
536.893	41793.77
537.104	41818.46
537.315	41851.08
537.526	41894.34
537.738	41943.85
537.949	42008.23
538.16	42068.01
538.371	42129.72
538.582	42177.08
538.794	42221.32
539.005	42245.54
539.216	42262.06
539.427	42279.32
539.638	42309.28
539.849	42325.66
540.06	42353.05
540.272	42364.92
540.483	42371.72
540.694	42370.97
540.905	42381.97
541.116	42406.08
541.327	42425.43
541.538	42451.55
541.749	42469.01
541.96	42477.03
542.17	42494.81
542.381	42504.46
542.592	42535.74
542.803	42557.57
543.014	42590.15
543.225	42615.15
543.436	42632.68
543.647	42656.68
543.857	42682.17
544.068	42708.39
544.279	42713.39
544.49	42718.99
544.701	42712.06
544.911	42695.66
545.122	42683.94
545.333	42661.81
545.543	42652.85
545.754	42647.12
545.965	42659.03
546.175	42675.88
546.386	42709.48
546.597	42770.06
546.807	42836.23
547.018	42907.81
547.229	42977.14
547.439	43029.32
547.65	43070.32
547.86	43102.97
548.071	43108.59
548.281	43109.25
548.492	43092.21
548.702	43058.97
548.913	43026.9
549.123	42978.9
549.333	42932.54
549.544	42886.28
549.754	42853.35
549.965	42823.75
550.175	42802.97
550.385	42801.5
550.596	42803.01
550.806	42821.77
551.016	42866.03
551.227	42899.57
551.437	42936.72
551.647	42967.9
551.857	42998.39
552.068	43043.34
552.278	43090.28
552.488	43135.23
552.698	43175.1
552.908	43198.86
553.119	43204.14
553.329	43176.65
553.539	43158.3
553.749	43151.61
553.959	43149.3
554.169	43163.21
554.379	43169.32
554.589	43188.85
554.799	43198.5
555.009	43209.17
555.219	43219.48
555.429	43234.74
555.639	43250.99
555.849	43256.01
556.059	43247.05
556.269	43245.08
556.479	43237.01
556.689	43238.12
556.899	43235.68
557.109	43226.95
557.319	43225.01
557.528	43213.95
557.738	43200.17
557.948	43204.35
558.158	43211.28
558.368	43220.05
558.577	43242.1
558.787	43272.99
558.997	43301.28
559.207	43336.83
559.416	43387.54
559.626	43437.03
559.836	43491.63
560.045	43550.55
560.255	43600.81
560.465	43646.83
560.674	43680.3
560.884	43699.88
561.093	43702.75
561.303	43697.1
561.512	43675.55
561.722	43664.03
561.932	43639.54
562.141	43634.41
562.351	43630.88
562.56	43640.17
562.769	43653.06
562.979	43692.55
563.188	43731.37
563.398	43780.19
563.607	43819.97
563.817	43863.5
564.026	43900.59
564.235	43945.5
564.445	43968.3
564.654	43995.28
564.863	44009.99
565.073	44033.03
565.282	44053.63
565.491	44078.79
565.7	44119.94
565.91	44200.06
566.119	44288.7
566.328	44376.55
566.537	44460.92
566.746	44561.21
566.956	44670.45
567.165	44774.3
567.374	44904.45
567.583	45028.48
567.792	45192.81
568.001	45363.7
568.21	45545.39
568.419	45762.61
568.628	45992.17
568.837	46223.79
569.046	46440.34
569.255	46631.59
569.464	46842.81
569.673	47050.46
569.882	47271.52
570.091	47463.28
570.3	47648.99
570.509	47817.77
570.718	47932.59
570.927	47993.39
571.135	48002.68
571.344	47961.66
571.553	47931.74
571.762	47934.28
571.971	47972.01
572.18	48067.79
572.388	48180.21
572.597	48288.63
572.806	48383.03
573.014	48503.59
573.223	48652.99
573.432	48837.08
573.641	49085.19
573.849	49302.95
574.058	49445.92
574.266	49497.61
574.475	49438.88
574.684	49344.99
574.892	49258.39
575.101	49193.81
575.309	49173.54
575.518	49182.66
575.726	49218.79
575.935	49300.39
576.143	49461.08
576.352	49728.65
576.56	50104.06
576.769	50480.41
576.977	50796.81
577.186	50992.97
577.394	51052.97
577.602	50973.28
577.811	50844.94
578.019	50717.05
578.228	50574.77
578.436	50424.14
578.644	50258.92
578.852	50029.55
579.061	49832.12
579.269	49670.46
579.477	49584.25
579.685	49649.92
579.894	49958.43
580.102	50446.37
580.31	51079.97
580.518	51724.75
580.726	52261.68
580.935	52624.37
581.143	52829.06
581.351	52898.46
581.559	52859.68
581.767	52741.79
581.975	52482.57
582.183	52010.25
582.391	51375.95
582.599	50624.81
582.807	49878.35
583.015	49264.57
583.223	48800.83
583.431	48529.3
583.639	48441.74
583.847	48517.61
584.055	48712.66
584.263	48980.74
584.471	49248.14
584.678	49453.55
584.886	49552.14
585.094	49531.21
585.302	49411.46
585.51	49269.1
585.718	49124.65
585.925	48992.19
586.133	48899.26
586.341	48788.7
586.549	48673.25
586.756	48571.21
586.964	48496.52
587.172	48464.94
587.379	48469.03
587.587	48465.94
587.795	48383.25
588.002	48207.65
588.21	47958.54
588.417	47643.99
588.625	47323.54
588.833	47024.45
589.04	46761.48
589.248	46513.3
589.455	46274.63
589.663	46050.99
589.87	45851.74
590.078	45718.43
590.285	45627.19
590.492	45554.54
590.7	45467.48
590.907	45393.5
591.115	45390.21
591.322	45475.34
591.529	45693.39
591.737	45972.34
591.944	46271.85
592.151	46535.01
592.359	46741.05
592.566	46902.83
592.773	47013.34
592.981	47084.19
593.188	47140.39
593.395	47167.9
593.602	47162.03
593.809	47086.83
594.017	46962.77
594.224	46827.05
594.431	46679.88
594.638	46538.32
594.845	46403.5
595.052	46295.75
595.259	46198.77
595.466	46094.72
595.673	45963.1
595.88	45792.39
596.088	45629.77
596.295	45475.35
596.502	45317.97
596.709	45196.72
596.915	45102.34
597.122	45060.65
597.329	45101.3
597.536	45249.88
597.743	45434.25
597.95	45602.74
598.157	45694.28
598.364	45699.12
598.571	45701.74
598.777	45712.35
598.984	45759.19
599.191	45823.79
599.398	45865.57
599.605	45858.08
599.811	45790.1
600.018	45689.94
600.225	45580.57
600.431	45514.94
600.638	45483.05
600.845	45441.79
601.052	45420.55
601.258	45404.45
601.465	45378.48
601.671	45385.85
601.878	45391.95
602.085	45387.14
602.291	45353.52
602.498	45269.83
602.704	45128.46
602.911	44918.65
603.117	44659.3
603.324	44338.01
603.53	43962.12
603.737	43584.23
603.943	43169.15
604.15	42751.01
604.356	42343.15
604.562	41926.65
604.769	41510.57
604.975	41120.86
605.181	40752.32
605.388	40390.52
605.594	40059.9
605.8	39754.68
606.007	39432.55
606.213	39090.97
606.419	38707.61
606.625	38262.08
606.832	37820.28
607.038	37396.99
607.244	36991.65
607.45	36626.54
607.656	36265.94
607.863	35876.01
608.069	35447.52
608.275	35035.26
608.481	34661.94
608.687	34321.08
608.893	34006.46
609.099	33680.19
609.305	33343.03
609.511	32982.15
609.717	32605.92
609.923	32248.21
610.129	31902.15
610.335	31568.99
610.541	31209.1
610.747	30787.95
610.953	30312.12
611.159	29844.12
611.365	29391.95
611.571	28962.75
611.776	28551.08
611.982	28127.03
612.188	27684.7
612.394	27239.92
612.6	26805.63
612.806	26374.9
613.011	25957.43
613.217	25558.32
613.423	25130.21
613.628	24706.35
613.834	24290.63
614.04	23887.86
614.246	23503.17
614.451	23126.61
614.657	22734.45
614.862	22334.26
615.068	21931.66
615.274	21544.52
615.479	21169.81
615.685	20819.41
615.89	20475.32
616.096	20127.21
616.301	19771.17
616.507	19412.43
616.712	19054.21
616.918	18701.03
617.123	18340.15
617.329	17976.88
617.534	17601.68
617.74	17220.85
617.945	16829.39
618.15	16411.9
618.356	15746.03
618.561	14491.81
618.766	12953.92
618.972	11372.57
619.177	9836.5
619.382	8345.88
619.588	6899.79
619.793	6041.66
619.998	5032.26
620.203	3818.83
620.408	2336.47
620.614	867.63
